MR32 ASCII
Name	USMC15_slow
Frequency	1500
Date	11-09-2015 12:06:30
"Time,s"	"RT TIB.ANT.,uV"	"RT MED. GASTRO,uV"	"RT LAT. GASTRO,uV"	"RT BICEPS FEM.,uV"	"RT VMO,uV"	"RT VLO,uV"	"RT RECTUS FEM.,uV"	"RT SOLEUS,uV"	"RT SEMITEND.,uV"	"Channel 12,uV"
0.0000	81.2656	-6.87315	-9.55662	-100.859	-33.8474	11.6095	-4.18968	14.5198	29.3745	-9247.62
0.0007	81.8533	-4.13792	-2.23484	-49.2903	-33.5505	-4.55908	-5.71484	18.5043	-28.2985	-10348.1
0.0013	62.0311	-1.40268	3.25649	-30.0617	-34.1443	-27.1303	-11.5104	20.6316	-87.5047	-9529.99
0.0020	53.4825	-2.6651	-1.00036	-10.2277	-34.1443	-47.2849	-15.1708	17.5588	-107.653	-9865.16
0.0027	40.9801	-4.76912	-5.27849	22.1121	-29.2666	-72.9203	-20.0602	13.3042	-156.18	-9847.13
0.0033	-15.4944	-3.57684	0.510821	41.0381	-21.6318	-80.8427	-19.1452	17.2549	-155.265	-9791.43
0.0040	-47.4984	0.140268	10.5783	39.206	-14.3152	-62.2327	-8.76514	26.4395	-100.632	-9818.15
0.0047	-26.4474	0.140268	12.1107	27.911	-8.20737	-46.0641	-5.40981	27.0473	-85.9983	-9817.18
0.0053	20.5168	-3.57684	3.87373	40.4327	-2.41767	-30.4935	-9.3752	20.9355	-101.25	-9812.03
0.0060	71.8086	-5.68087	-1.6176	66.9737	6.74404	-7.59846	-8.76514	18.5043	-141.223	-9790.46
0.0067	90.1348	-6.87315	-2.8308	74.9073	13.1488	3.68712	-5.10478	16.951	-203.173	-9908.3
0.0073	47.7121	-7.22382	-5.27849	79.7981	9.79794	3.98608	-1.13938	13.0003	-221.492	-9699.67
0.0080	-32.2711	-5.9614	-6.81095	80.7061	2.16318	6.42755	6.19033	12.3925	-125.971	-9714.8
0.0087	-62.7791	-5.68087	-6.49169	44.0968	-2.71458	5.82964	6.49536	11.1768	9.2266	-10550
0.0093	0.374003	-7.22382	-8.02415	-40.4487	-7.91046	3.98608	0.385774	4.76114	103.833	-6907.86
0.0100	116.048	-5.40033	-8.6414	-109.716	-19.808	11.9333	3.14002	7.19235	204.249	-563.447
0.0107	186.521	-2.03389	-7.72617	-108.49	-32.9355	22.2971	9.24063	17.8627	259.77	107.216
0.0113	164.561	-2.6651	-7.10893	-96.2866	-39.6371	24.7386	8.02051	25.494	220.416	-286.875
0.0120	49.8493	-2.6651	-1.91558	-129.248	-39.6371	25.9593	8.32554	32.2136	209.118	48.6175
0.0127	-166.859	0.701342	7.8326	-155.486	-33.8474	30.5433	13.206	37.7176	293.96	30.9091
0.0133	-387.467	2.52483	13.9412	-148.174	-27.1246	31.4651	13.206	37.1098	387.652	-25.4356
0.0140	-527.238	3.43657	15.1757	-146.342	-23.7738	30.2444	11.9859	35.2864	424.262	1.28788
0.0147	-562.073	8.34597	15.7716	-180.211	-15.5452	29.6215	15.3412	38.3255	405.97	-0.96591
0.0153	-512.598	9.53825	9.66304	-266.27	-1.80265	26.5822	19.3066	36.8059	380.927	-0.64394
0.0160	-457.353	6.24194	0.510821	-361.489	4.89897	25.6604	22.6709	30.0863	386.118	-0.96591
0.0167	-369.195	5.89127	0.830085	-378.583	5.83211	26.8811	21.7559	27.3512	383.374	-0.64394
0.0173	-182.727	7.71476	5.40619	-325.166	8.5679	26.2583	13.8161	28.2629	356.529	-0.32197
0.0180	20.8373	8.6265	7.53462	-279.397	7.95288	28.1019	9.24063	27.959	330.893	-0.64394
0.0187	117.864	6.52248	8.15186	-274.203	3.98704	31.4651	8.02051	23.6706	309.831	-0.64394
0.0193	91.9514	2.24429	3.25649	-287.33	4.30516	32.362	4.36014	18.5043	284.195	-0.32197
0.0200	27.2488	-4.76912	-4.36327	-293.129	6.42592	30.2444	2.52996	11.4808	258.56	-0.32197
0.0207	-4.48804	-12.9748	0.830085	-287.936	7.04095	23.8168	1.6059	2.93772	236.287	-0.64394
0.0213	-2.35088	-14.8684	19.7518	-255.899	7.35906	21.0764	0.0807434	-4.9975	202.716	-0.64394
0.0220	40.3924	-11.1513	28.904	-205.541	9.18292	27.479	-1.74944	-11.4132	177.377	-0.32197
0.0227	92.8597	-9.95905	15.4736	-171.369	10.413	29.9205	-4.79975	-17.8289	176.166	-0.32197
0.0233	100.5	-11.7825	-0.0851369	-163.42	8.5679	27.8029	-1.13938	-26.9798	183.187	-0.32197
0.0240	57.1691	-13.9567	-3.15007	-205.238	8.88601	25.0376	5.27523	-35.8267	208.5	-0.32197
0.0247	8.92265	-20.0584	-6.81095	-248.57	10.413	12.8302	4.9702	-43.458	229.266	-0.64394
0.0253	9.83094	-24.2664	-9.25864	-211.037	19.2566	-3.6373	3.14002	-47.4425	189.885	-0.64394
0.0260	60.2145	-22.1624	-4.06529	-139.316	46.4236	-14.9229	4.66517	-43.458	134.66	-0.32197
0.0267	94.6763	-22.4429	-5.89573	-95.0758	74.1844	-20.4287	3.75008	-37.6501	129.172	-0.32197
0.0273	87.6771	-25.2483	-13.8347	-63.3255	83.94	-23.7919	1.30087	-34.0033	146.55	-0.32197
0.0280	137.419	-23.9859	-15.3459	-31.8937	80.9073	-27.4541	6.49536	-26.6759	147.787	-0.32197
0.0287	253.361	-23.0741	-16.8784	-13.8918	70.8336	-35.6754	13.5111	-22.4212	133.449	-0.32197
0.0293	335.802	-23.7053	-21.1565	-4.4288	57.7061	-45.4413	10.4608	-21.1719	102.622	0
0.0300	400.184	-18.5154	-16.5804	13.8758	43.9635	-44.5444	6.19033	-9.5898	60.4974	-0.32197
0.0307	403.229	-9.04731	-4.66125	27.6083	28.7152	-34.1557	3.75008	6.28065	26.6307	-0.32197
0.0313	362.943	-1.75335	6.32142	28.5323	11.0068	-23.1691	-2.96956	14.5198	0.376596	0
0.0320	454.467	9.25771	23.7106	33.7099	-6.68042	-14.9229	-2.96956	25.494	-19.1526	-0.32197
0.0327	515.537	22.0923	44.4627	39.8273	-17.0722	-13.4032	-1.74944	38.3255	-31.0422	-0.32197
0.0333	332.115	26.0198	53.317	42.5675	-18.896	-17.3644	-7.23999	43.5256	-41.4255	-0.32197
0.0340	-16.9904	25.108	50.8693	48.3663	-19.808	-25.0126	-7.23999	47.1724	-47.8277	-0.32197
0.0347	-420.754	23.9158	47.2084	55.3759	-21.6318	-32.636	-9.98526	48.388	-53.3421	0
0.0353	-664.871	18.0946	39.2694	58.132	-18.281	-33.5578	-26.1609	36.1981	-65.2318	0
0.0360	-569.66	8.97717	24.3279	50.8038	-7.29544	-25.3116	-33.7866	20.0238	-68.5942	-0.32197
0.0367	-320.361	-6.59261	-0.0851369	31.5751	7.95288	-19.8058	-30.1263	2.93772	-62.488	-0.32197
0.0373	-215.052	-29.4564	-32.4372	21.5068	23.8374	-22.8701	-31.3464	-20.5641	-65.8505	-0.32197
0.0380	-274.572	-42.9221	-47.698	34.9366	58.9149	-20.7276	-28.6011	-30.9643	-75.2922	-0.32197
0.0387	-377.423	-41.0986	-41.5894	43.4755	110.195	-16.4675	-13.3406	-31.2682	-80.188	-0.64394
0.0393	-381.376	-36.8204	-34.8848	27.911	138.571	-20.7276	3.44505	-37.0423	-82.9318	-0.64394
0.0400	-293.806	-29.1758	-23.5829	4.73149	135.835	-21.0266	23.281	-34.0033	-77.7401	-0.64394
0.0407	-320.04	-17.6037	-6.19371	-1.68868	115.985	-17.9872	38.8376	-19.3484	-67.9755	0
0.0413	-444.262	-9.95905	5.70417	11.7411	86.697	-21.3504	37.6174	-8.982	-69.5088	-0.32197
0.0420	-575.164	-1.75335	17.6021	31.8778	51.5983	-15.2468	32.4319	2.02602	-75.615	-0.32197
0.0427	-667.97	8.97717	29.202	43.1728	11.6218	-3.33834	37.9225	17.8627	-75.2922	-0.32197
0.0433	-566.936	11.9929	29.4999	44.3995	-18.5991	-4.55908	46.4723	25.1901	-76.8255	-0.32197
0.0440	-280.983	5.89127	20.3477	46.2316	-37.1983	-8.52024	45.8622	22.455	-81.3985	-0.32197
0.0447	22.6539	-3.85738	6.32142	46.5343	-51.2377	-4.55908	36.3973	15.1276	-81.7213	-0.32197
0.0453	241.766	-13.3255	-8.6414	37.0713	-56.4336	-1.19582	23.281	3.54553	-84.7609	0
0.0460	324.475	-18.1648	-17.1764	25.4736	-69.8581	-2.71552	11.6809	-3.47799	-90.2485	0
0.0467	306.79	-16.0607	-16.5804	23.3388	-93.6531	-3.93625	5.27523	-0.135068	-89.038	0
0.0473	291.509	-14.5178	-17.1764	33.7099	-103.43	-7.59846	-2.66453	-0.43897	-89.038	0
0.0480	289.372	-17.8842	-21.1565	47.1396	-98.2339	-9.44203	-11.2054	-10.1976	-90.8672	-0.32197
0.0487	269.549	-15.7802	-13.8347	56.9053	-78.7017	-0.597912	-10.2903	-13.2366	-85.0568	-0.32197
0.0493	232.63	-8.76677	-0.0851369	63.3255	-45.7449	-0.274043	-10.5953	-12.9327	-81.7213	0
0.0500	94.6763	-8.13556	0.830085	64.8389	-23.1588	1.84356	-20.6703	-21.7797	-84.465	0
0.0507	-59.7337	-11.1513	-6.81095	66.9737	-21.9499	41.231	-27.686	-26.0681	-82.6359	-0.32197
0.0513	93.4474	-13.3255	-14.75	66.9737	-25.9158	83.9568	-29.8212	-20.2602	-82.3131	-0.32197
0.0520	377.583	-16.9725	-23.2849	65.4602	-24.6857	108.969	-32.2615	-16.3094	-87.8275	-0.32197
0.0527	436.195	-19.1466	-24.8174	71.5618	-12.1732	144.969	-26.4659	-8.3742	-90.8672	-0.32197
0.0533	618.067	-14.5178	-14.75	77.6633	10.0949	173.967	-15.1708	5.97674	-91.7818	-0.32197
0.0540	1033.69	-10.8708	-7.72617	77.6633	26.8913	180.37	-7.85005	10.569	-95.1442	-0.32197
0.0547	1233.3	-6.87315	-1.00036	79.7981	29.924	188.317	0.0807434	11.1768	-96.6775	-0.32197
0.0553	1118.27	4.41845	17.0061	81.0248	34.5049	189.239	7.71548	17.8627	-97.888	-0.32197
0.0560	763.02	17.5335	35.3105	75.5286	40.9096	170.604	9.24063	25.1901	-100.632	0
0.0567	195.39	30.6486	50.5713	71.5618	34.208	154.735	13.8161	40.1489	-93.315	-0.32197
0.0573	-469.908	44.956	67.0453	70.3351	20.4654	134.904	24.1961	61.5233	-80.8067	0
0.0580	-1003.34	49.2342	68.8758	65.4602	15.5876	89.4377	30.9068	68.2429	-77.7401	0
0.0587	-1180.62	37.0308	49.3368	59.3587	11.9187	31.7641	32.1269	57.5388	-75.2922	-0.32197
0.0593	-893.173	16.2711	20.667	56.6026	-0.2757	-32.3371	36.7024	38.3255	-67.3568	-0.32197
0.0600	-401.519	-10.5903	-13.2175	53.2412	11.6218	-96.1143	38.8376	6.28065	-61.2775	-0.32197
0.0607	-139.396	-35.558	-43.4198	52.0304	39.9977	-151.346	32.737	-29.7149	-55.7631	-0.32197
0.0613	-55.4593	-49.655	-59.2979	56.2999	34.823	-186.449	28.4665	-52.9128	-51.5129	-0.32197
0.0620	-14.5861	-54.8449	-62.9587	45.9289	12.5337	-151.346	23.281	-66.6559	-52.1047	-0.32197
0.0627	-28.3174	-53.302	-54.7217	18.464	3.39323	-81.1665	10.7658	-71.2482	-50.5714	-0.32197
0.0633	-41.7281	-45.9379	-39.461	2.58081	3.98704	-39.0387	-5.71484	-67.8715	-45.9985	-0.32197
0.0640	-84.4713	-34.997	-23.5829	2.89943	-1.18763	21.6992	-21.8904	-67.2637	-43.8734	0
0.0647	-124.757	-20.0584	-3.15007	9.90904	-10.3493	95.2424	-29.5162	-62.6714	-42.9588	0
0.0653	-77.1515	-5.9614	14.5584	18.464	-6.99853	131.242	-27.991	-46.497	-39.8923	-0.32197
0.0660	-33.7672	-2.31443	17.0061	20.296	11.0068	132.462	-24.9407	-31.5721	-39.5964	-0.32197
0.0667	69.992	-6.59261	8.44984	16.9346	29.924	108.048	-20.6703	-23.6368	-43.8734	0
0.0673	298.829	-9.32784	2.04329	13.5732	27.8033	77.8531	-10.2903	-19.3484	-43.2547	0
0.0680	472.794	-13.3255	-4.36327	14.7998	7.35906	39.0885	-3.57962	-23.3329	-37.4713	-0.32197
0.0687	476.16	-19.4272	-12.6003	27.3056	-14.3152	-11.5845	-12.1205	-26.372	-34.1088	-0.32197
0.0693	203.939	-17.6037	-12.9195	30.0617	-23.1588	-41.7791	-16.0859	-22.7251	-29.5359	-0.64394
0.0700	-89.0128	-13.3255	-11.3871	1.06737	-18.5991	-66.8167	-5.40981	-24.8525	-19.1526	-0.96591
0.0707	-102.156	-17.6037	-18.0916	-19.9933	-19.808	-110.763	1.9199	-32.1799	-6.32143	-0.32197
0.0713	1.2823	-23.7053	-23.5829	-9.00098	-23.4769	-138.516	12.596	-36.1306	16.5433	0
0.0720	174.018	-24.2664	-23.5829	2.27812	-24.0919	-147.684	23.586	-37.3462	42.1787	-0.32197
0.0727	387.681	-18.796	-18.0916	10.2117	-40.8672	-163.554	11.9859	-31.5721	50.1141	0
0.0733	425.509	-9.04731	-6.49169	22.1121	-67.4192	-171.476	-10.9004	-14.486	35.7766	-0.32197
0.0740	191.757	1.96376	8.15186	30.3644	-68.3311	-166.294	-25.8558	6.88845	13.7995	-0.64394
0.0747	-219.647	13.2554	23.4126	31.2724	-40.8672	-131.217	-31.9564	25.1901	3.44316	-0.32197
0.0753	-563.57	22.3728	33.7781	30.3644	-5.76849	-47.8828	-31.0413	39.845	-3.57766	-0.32197
0.0760	-549.838	27.0017	34.9913	28.5323	21.0804	33.2838	-30.1263	48.9958	-33.8129	-0.32197
0.0767	-292.577	26.651	29.4999	19.9774	29.3302	90.3594	-28.9061	49.6036	-97.888	0
0.0773	-252.933	23.9158	23.7106	8.69829	52.2133	136.424	-18.8401	48.6919	-155.265	-0.32197
0.0780	-437.851	19.6376	18.2193	-1.99137	90.9597	151.994	-6.3249	45.349	-131.459	0
0.0787	-377.102	5.89127	2.04329	-14.1945	86.0819	142.228	2.22493	26.7434	-37.1485	0
0.0793	-13.3573	-15.149	-20.5393	-27.3216	53.4221	135.826	14.1211	-1.95848	30.585	0
0.0800	248.819	-27.6329	-31.5219	-33.7258	43.3697	129.722	26.9414	-24.8525	40.3495	0
0.0807	255.231	-29.807	-30.926	-34.0285	33.296	101.944	39.7616	-33.0916	30.2891	-0.32197
0.0813	187.482	-29.1758	-27.5631	-37.6926	2.7782	55.556	61.4278	-31.2682	38.2245	-0.32197
0.0820	161.837	-27.0718	-22.6677	-42.2648	-18.5991	25.9593	84.314	-33.3955	71.7953	0
0.0827	68.122	-24.6171	-19.922	-43.1888	-23.1588	-0.274043	91.9398	-41.0268	87.3433	-0.32197
0.0833	-51.185	-24.2664	-22.987	-32.8177	-14.0183	-52.1678	75.4592	-38.8995	59.2869	-0.32197
0.0840	-142.121	-24.8976	-28.4783	-12.6651	17.7296	-106.179	44.0321	-32.4838	34.2433	0
0.0847	-316.407	-25.8094	-33.3524	-3.82343	41.8427	-158.671	15.3412	-30.9643	37.6058	0
0.0853	-425.028	-18.1648	-28.7763	-5.3528	35.7349	-193.15	-3.57962	-19.6523	44.9225	0
0.0860	-331.313	-4.76912	-15.3459	0.446066	22.6074	-177.58	-9.3752	-4.9975	48.285	-0.32197
0.0867	-163.493	3.78725	-3.15007	8.69829	11.6218	-138.217	-9.68023	-1.65458	46.7786	-0.32197
0.0873	-155.532	17.5335	18.2193	9.90904	10.7099	-98.2569	-2.96956	16.3432	39.7578	-0.32197
0.0880	-300.218	35.4879	40.8019	8.69829	35.4168	-70.1799	9.24063	49.2997	31.4995	0
0.0887	-242.835	39.7661	42.9303	3.50481	43.0516	-56.4279	17.1714	60.9155	26.9266	0
0.0893	-100.34	46.7795	50.5713	-5.3528	1.25125	-18.5851	21.7559	63.6506	26.9266	-0.32197
0.0900	-51.7727	61.7882	70.4082	-7.79023	-44.833	29.6215	10.7658	75.5704	23.8869	-0.32197
0.0907	135.87	55.0553	60.9367	2.89943	-64.0684	40.3092	-13.6456	67.939	18.0766	0
0.0913	103.545	33.3839	30.7344	15.4052	-76.8778	40.9071	-27.991	47.4763	19.314	0
0.0920	-346.006	21.8117	13.0259	12.9678	-66.8042	67.1654	-31.9564	39.2372	23.8869	-0.32197
0.0927	-422.891	8.06543	-6.19371	2.89943	-14.3152	80.2946	-32.8715	24.2784	24.1828	0
0.0933	132.237	-16.6919	-36.4173	-3.52074	23.5193	61.3607	-25.8558	-1.04677	27.2225	-0.32197
0.0940	763.341	-36.8204	-57.1694	-2.89943	22.9043	47.3347	-10.2903	-14.1483	32.1182	-0.32197
0.0947	1063.02	-45.6573	-58.3826	1.67275	15.2907	47.0108	4.9702	-31.5721	29.3745	0
0.0953	836.592	-52.6708	-48.9112	3.50481	6.12902	34.8035	13.5111	-68.1754	26.3079	0
0.0960	295.516	-58.1412	-35.1828	3.50481	-1.80265	-12.4814	25.4162	-95.0201	29.3745	0
0.0967	-111.026	-52.6708	-20.2413	7.47161	-12.1732	-95.8154	34.2621	-99.9163	24.1828	0
0.0973	-261.428	-41.7298	-8.02415	26.7003	-25.6189	-170.878	42.5069	-97.1812	9.2266	-0.32197
0.0980	-269.389	-38.9245	-4.36327	55.6946	-24.6857	-172.697	55.9282	-95.6617	-1.45258	-0.32197
0.0987	-220.235	-42.2909	-10.7698	63.0069	-10.6462	-146.464	41.2868	-93.1967	-6.32143	0
0.0993	-160.447	-41.3792	-15.6652	49.2744	-2.41767	-169.657	8.63057	-86.1732	-6.94012	-0.64394
0.1000	-138.167	-28.5446	-7.72617	47.4423	-2.09956	-182.463	1.6059	-63.6169	-4.49225	-0.64394
0.1007	-159.539	-14.5178	-0.0851369	60.8721	1.25125	-166.593	-3.57962	-30.0188	-7.55881	-0.32197
0.1013	-170.492	-10.2396	-1.6176	71.8645	27.4851	-129.373	-32.2615	-16.3094	-12.1318	-0.32197
0.1020	-145.808	-7.22382	0.510821	70.9405	71.7455	42.4517	-53.3175	-33.6994	-8.7693	0
0.1027	-125.345	-3.57684	2.66053	39.8273	87.6089	302.444	-64.9177	-57.2012	-5.40684	0.32197
0.1033	-138.488	-3.57684	-0.702379	-6.56355	65.9346	470.905	-75.9078	-56.2895	-3.57766	0.32197
0.1040	-162.905	-2.03389	0.510821	-28.2296	29.6271	522.176	-70.1032	-25.4603	4.35775	0.32197
0.1047	-166.859	-0.210403	2.34126	-37.6926	0.0212077	520.358	-60.6473	-5.60531	8.01611	0
0.1053	-126.573	0.420805	0.510821	-45.0208	9.47983	494.398	-45.9968	-6.85468	4.35775	-0.32197
0.1060	-32.5917	4.97953	4.17171	-41.9621	38.1738	432.141	-11.2054	0.776639	7.10152	0
0.1067	78.8078	8.34597	7.53462	-42.8861	38.7888	353.715	12.901	5.67284	11.6745	-0.32197
0.1073	212.167	5.3302	4.17171	-45.9289	36.9438	273.146	15.3412	-2.87019	9.52249	0
0.1080	358.669	4.06778	1.42604	-34.6498	56.1791	167.266	26.6363	-2.56629	8.31201	0
0.1087	352.258	3.15604	-0.702379	-19.0853	59.233	21.9982	41.2868	7.80016	7.39742	-0.32197
0.1093	345.846	-0.490939	-7.10893	-17.5559	40.9096	-150.724	35.4822	17.8627	3.44316	-0.32197
0.1100	638.798	0.420805	-7.72617	-23.9601	40.9096	-289.888	42.8119	32.2136	2.52857	-0.32197
0.1107	835.951	4.69899	-2.8308	-21.22	72.3606	-371.378	70.5787	46.2607	-0.242097	0
0.1113	651.353	5.3302	-0.0851369	-16.0265	70.2186	-407.701	72.7139	51.1569	-9.0921	0
0.1120	420.593	10.1695	10.2803	-15.7238	2.46009	-399.455	53.793	58.1466	-17.0275	-0.32197
0.1127	272.916	25.4587	30.1172	-9.3196	-66.8042	-394.871	37.9225	73.1054	-23.1068	-0.32197
0.1133	132.825	41.0285	44.1648	4.73149	-100.079	-446.765	21.7559	88.368	-28.2985	0
0.1140	-119.254	43.1325	36.843	10.5304	-111.976	-488.27	9.85069	98.7345	-28.2985	-0.32197
0.1147	-522.696	29.3862	8.15186	7.7743	-101.903	-421.727	-6.01987	101.807	-26.7921	0
0.1153	-644.141	4.69899	-28.7763	11.1357	-71.0881	-295.991	-35.9218	89.8875	-30.1277	0
0.1160	-219.326	-19.7077	-56.5522	18.7666	-60.3994	-225.189	-58.512	76.1782	-33.8129	-0.64394
0.1167	336.71	-30.7188	-57.4674	24.5655	-89.3903	-209.942	-66.4428	75.8743	-31.9568	-0.32197
0.1173	567.737	-19.1466	-21.7525	24.8682	-126.016	-174.839	-69.4931	78.9133	-28.0026	0
0.1180	395.909	4.69899	26.7543	19.9774	-94.8831	-115.646	-69.4931	90.4953	-27.088	-0.32197
0.1187	-1.12201	4.97953	48.1236	15.7079	-11.8763	-97.634	-73.1535	110.046	-30.7464	0
0.1193	-492.188	-22.7936	42.6323	16.0106	20.4654	-78.7251	-76.2128	115.55	-32.5755	0
0.1200	-884.037	-44.1144	33.1608	19.372	12.2368	48.2316	-77.4329	112.782	-31.6609	0
0.1207	-752.762	-50.2161	17.0061	18.1453	5.51399	178.551	-82.9235	97.8228	-33.8129	0
0.1213	-183.315	-53.5825	-7.72617	12.6651	-9.73432	189.239	-83.8385	48.0841	-35.6421	0
0.1220	210.35	-51.1278	-26.0306	9.90904	-23.1588	131.242	-76.8228	9.92747	-31.9568	-0.32197
0.1227	161.837	-40.1869	-32.4372	4.73149	-34.7594	51.8938	-66.7479	10.8729	-27.7067	0
0.1233	-142.121	-33.454	-34.2676	1.67275	-33.5505	-23.468	-50.5723	-8.3742	-22.515	0.32197
0.1240	-320.681	-35.2775	-39.163	3.20212	-3.94463	-76.2836	-24.6357	-48.962	-13.3422	0
0.1247	-249.567	-37.101	-46.7827	-2.59674	4.60206	-112.582	11.9859	-70.3027	-6.02553	-0.32197
0.1253	-148.533	-28.5446	-43.4198	-9.00098	-14.3152	-114.425	34.2621	-86.1732	-6.94012	-0.32197
0.1260	23.8828	-10.2396	-27.2438	4.11018	-14.9302	-41.1812	21.4508	-108.459	-15.7901	0
0.1267	317.796	9.25771	-7.72617	27.3056	-15.8421	35.1273	-6.3249	-113.052	-29.5359	0
0.1273	591.192	29.1057	15.4736	36.7686	-40.8672	53.1145	-20.9753	-86.4771	-38.0631	-0.32197
0.1280	696.18	50.1459	38.9714	28.5323	-67.7161	68.0872	-24.6357	-50.7854	-32.5755	-0.32197
0.1287	193.894	70.9056	61.554	14.7998	-76.8778	69.6069	-33.1766	-22.4212	-24.6401	-0.32197
0.1293	-566.936	86.756	81.3909	6.24493	-70.77	50.673	-38.6761	5.36894	-24.3442	0.32197
0.1300	-681.381	81.2855	71.9194	4.73149	-57.9606	36.3481	-41.7264	22.7589	-23.7255	-0.32197
0.1307	-569.981	57.51	35.9278	8.37967	-35.3744	47.6336	-50.2672	25.494	-22.8109	-0.64394
0.1313	-566.348	39.4855	11.8127	20.296	-15.8421	94.3206	-45.3868	36.8059	-21.8964	0
0.1320	-44.453	27.0017	2.66053	24.5655	-10.6462	96.7621	-29.2112	52.6764	-21.6005	0
0.1327	722.735	16.6218	-3.44804	19.9774	5.51399	36.0242	-26.4659	63.0428	-24.3442	-0.64394
0.1333	662.306	8.97717	-5.57647	19.6747	35.4168	-29.2728	-30.1263	70.0664	-23.4296	-0.32197
0.1340	-300.538	-2.03389	-4.06529	15.7079	53.4221	-86.0495	-19.4502	57.5388	-19.7713	-0.32197
0.1347	-1053.09	-20.6194	-5.89573	9.00098	57.091	-112.582	-10.2903	12.6964	-19.4485	-0.32197
0.1353	-820.83	-43.2026	-17.4956	17.54	54.3553	-90.3096	-22.1955	-41.6346	-21.6005	-0.32197
0.1360	11.701	-54.8449	-28.7763	31.5751	43.9635	-46.0641	-44.7767	-75.5028	-22.1922	0
0.1367	521.628	-50.5667	-29.6915	28.2296	23.5193	-14.6239	-69.7982	-97.1812	-22.515	-0.32197
0.1373	484.708	-49.3043	-28.4783	18.1453	7.35906	-16.7664	-74.3826	-119.467	-20.0672	0
0.1380	294.554	-60.9466	-28.1803	12.9678	3.39323	-56.129	-37.761	-133.481	-12.7505	0.32197
0.1387	115.727	-66.6976	-25.7326	1.97544	-5.47158	-98.5558	27.2464	-142.328	-6.02553	0
0.1393	42.7967	-57.2295	-24.4981	-10.5304	-17.0722	-127.555	99.5745	-143.543	0.672492	-0.64394
0.1400	95.5846	-44.1144	-24.4981	-6.56355	-17.0722	-153.165	135.586	-125.242	5.27234	-0.32197
0.1407	127.321	-33.1735	-19.6241	8.07699	-15.5452	-155.009	120.631	-106.028	4.94954	0
0.1413	104.774	-27.9835	-16.2611	19.6747	-20.7199	-125.412	94.075	-114.875	-0.537994	0
0.1420	95.5846	-30.0876	-17.7936	28.835	-24.3888	-50.3242	71.4938	-137.465	-8.7693	0
0.1427	109.957	-30.4382	-15.6652	32.8018	-25.6189	49.1533	40.3717	-142.328	-13.0464	0
0.1433	95.5846	-27.3523	-10.7698	36.4659	-29.5847	110.489	1.30087	-115.179	-13.9609	-0.32197
0.1440	45.8421	-23.7053	-8.34342	45.6103	-30.4966	185.577	-30.1263	-66.9598	-18.5339	-0.32197
0.1447	4.06061	-19.4272	-5.27849	39.206	-25.3008	284.756	-44.4717	-23.6368	-20.3631	0
0.1453	-48.7273	-16.0607	-0.702379	12.9678	-18.896	309.768	-41.1163	10.2651	-11.5131	-0.32197
0.1460	-109.476	-14.2372	1.12806	-4.12611	-8.20737	269.808	-35.3118	26.4395	-2.07128	-0.32197
0.1467	-94.516	-11.502	4.78895	3.20212	5.21709	235.303	-31.3464	20.0238	2.52857	0
0.1473	-22.8142	-4.13792	14.8564	19.0693	15.2907	215.771	-17.925	16.0393	6.48283	-0.32197
0.1480	14.1053	7.15369	19.7518	29.1377	19.8716	187.097	-4.18968	5.97674	7.39742	0
0.1487	7.10606	14.1671	14.8564	29.1377	22.9043	140.41	-2.66453	-24.8525	3.12036	0
0.1493	16.563	10.1695	9.06708	5.33686	30.539	90.6584	3.75008	-50.7854	0.672492	0
0.1500	47.3916	0.140268	5.40619	-23.9601	38.4707	48.5554	11.0708	-48.6581	3.44316	-0.32197
0.1507	56.2608	-4.13792	3.25649	-27.0189	41.8427	3.0643	8.02051	-24.5485	6.48283	-0.32197
0.1513	55.2991	-0.490939	4.78895	-11.4543	47.9293	29.0236	15.0362	-7.46249	8.9307	0
0.1520	46.7504	1.33255	8.74782	9.00098	64.7258	178.551	15.0362	-10.5015	8.9307	0
0.1527	29.7065	-2.31443	7.23664	-13.2864	79.3803	298.184	-20.0602	-14.1483	8.01611	0
0.1533	73.3046	-3.57684	1.74531	-76.4526	78.4472	311.313	-62.7825	-4.6936	13.5036	-0.32197
0.1540	158.15	-1.40268	0.212842	-84.9916	75.4145	285.677	-60.6473	2.93772	18.3725	-0.32197
0.1547	116.048	-0.771476	1.12806	-47.761	85.4669	247.834	-17.62	5.97674	16.2474	0
0.1553	14.1053	-0.210403	3.25649	-34.9525	99.5064	149.852	22.976	17.5588	21.1432	-0.32197
0.1560	26.0199	-1.12215	3.25649	-48.3823	103.472	-0.597912	60.2076	25.494	36.3953	0
0.1567	78.2201	-5.40033	-0.702379	-65.1575	102.263	-102.218	97.1343	18.2004	46.1599	0.32197
0.1573	83.9905	-7.50436	-1.31962	-65.4602	99.8245	-165.372	123.986	11.7847	47.9891	0
0.1580	65.7177	-6.59261	-2.53282	-52.9544	94.0136	-155.308	119.716	14.2159	45.5412	-0.32197
0.1587	59.3062	-7.50436	-8.93937	-48.0636	82.4342	-24.3898	79.1285	13.0003	36.6912	0
0.1593	66.8932	-9.04731	-9.55662	-46.8529	67.1647	92.477	60.8177	7.80016	29.9932	-0.64394
0.1600	59.5734	-8.13556	-3.74602	-34.6498	56.476	114.45	73.934	8.71186	31.2036	-0.64394
0.1607	38.5223	-7.85503	-3.44804	-29.1536	50.3894	57.6985	99.5745	12.0886	33.3287	-0.32197
0.1613	31.2026	-10.5903	-7.72617	-45.6262	36.6469	-27.4541	189.899	10.569	36.0725	0
0.1620	40.6595	-11.502	-5.89573	-56.0132	8.27099	-36.8961	269.252	8.10406	37.3099	0
0.1627	49.2081	-1.75335	3.87373	-39.222	-27.7396	20.4785	211.88	10.8729	20.8204	-0.32197
0.1633	50.437	11.9929	17.3041	-5.3528	-83.6006	7.64829	88.5845	16.0393	-6.94012	-0.32197
0.1640	47.7121	17.1829	33.7781	35.2392	-148.602	-100.997	-27.991	23.9745	-34.4047	-0.32197
0.1647	41.8884	18.7258	40.1846	58.7374	-159.885	-218.487	-129.306	40.4528	-52.1047	0
0.1653	41.5678	22.0923	23.4126	60.5694	-125.104	-327.431	-178.748	55.1076	-55.1713	-0.32197
0.1660	47.3916	18.7258	-12.6003	56.9053	-103.43	-425.389	-176.308	57.8427	-53.638	-0.32197
0.1667	53.4825	-7.50436	-46.4847	45.0049	-86.3364	-435.155	-147.617	64.2584	-46.6172	0
0.1673	63.5806	-35.558	-51.0609	31.8778	-70.4731	-354.911	-109.47	86.2407	-31.6609	0
0.1680	78.5407	-31.6305	-37.0133	25.4736	-61.9264	-270.356	-73.7725	86.5446	-18.8567	0
0.1687	83.7233	-18.5154	-30.3087	18.7666	-42.691	-205.358	-39.8962	48.9958	-13.665	0
0.1693	66.8932	-15.149	-32.7564	10.833	-28.6516	-133.035	-13.6456	31.6058	-12.1318	0
0.1700	57.7568	-11.1513	-40.9934	8.37967	-28.6516	-56.4279	-1.74944	36.1981	-8.7693	-0.32197
0.1707	70.5798	-4.13792	-37.3325	5.94224	-35.6713	-20.4287	13.206	20.0238	-5.11094	-0.32197
0.1713	71.8086	4.41845	-13.2175	1.97544	-27.7396	-35.0775	30.9068	-1.04677	-3.57766	0
0.1720	72.3963	-2.94564	-10.7698	4.41287	13.4457	-39.0387	34.5671	-1.35068	-4.19635	0.32197
0.1727	87.0359	-28.2641	-36.4173	8.07699	38.4707	10.0898	26.3313	9.62357	-6.32143	-0.32197
0.1733	77.579	-41.3792	-28.7763	6.54762	10.7099	54.0363	10.7658	15.7354	-6.64422	-0.32197
0.1740	39.4306	-30.7188	4.78895	7.16892	-20.423	36.0242	-11.5104	23.6706	-4.49225	0
0.1747	1.60287	-17.6037	24.9238	14.4972	-8.52548	24.7386	-30.4313	42.6138	-6.02553	0.32197
0.1753	-28.9051	-5.68087	38.0562	21.2041	38.4707	72.0484	-38.066	68.5468	-10.3026	-0.32197
0.1760	-38.6826	11.4319	42.0151	18.464	97.3856	123.319	-46.9119	95.0876	-11.5131	-0.64394
0.1767	-16.0821	7.71476	29.4999	9.00098	178.865	135.203	-57.5969	102.719	-5.40684	-0.32197
0.1773	17.7919	-17.8842	5.40619	4.41287	258.203	126.658	-64.6126	62.1311	0.0806991	0
0.1780	44.0255	-26.4406	-16.2611	4.11018	279.56	121.476	-61.8674	3.54553	1.61398	0
0.1787	57.7568	-11.7825	-17.1764	-1.68868	251.184	92.477	-28.6011	-17.8289	8.01611	0
0.1793	47.7121	0.701342	-2.53282	-18.464	197.168	18.336	17.7815	-11.1093	16.2474	0
0.1800	31.2026	-4.76912	8.15186	-34.6498	128.497	-77.8033	61.7328	-4.3897	22.6495	0
0.1807	22.9745	-15.7802	17.9213	-31.2884	59.5299	-159.892	123.681	-4.6936	27.2225	-0.32197
0.1813	-6.30463	-10.8708	31.3304	-23.6574	3.98704	-171.177	177.088	-1.04677	22.0578	-0.32197
0.1820	-42.0487	-4.48859	33.1608	-22.7494	-45.7449	-128.152	190.519	0.776639	12.5891	-0.32197
0.1827	-47.819	-14.2372	20.965	-12.3624	-120.523	-133.035	174.953	-3.47799	5.56824	0
0.1833	-46.0024	-19.1466	13.3239	16.6319	-189.491	-168.736	107.81	4.45723	-10.3026	0
0.1840	-48.1396	-8.76677	9.36506	44.7022	-209.023	-131.516	0.0807434	9.92747	-30.7464	-0.32197
0.1847	-35.9043	7.15369	3.25649	51.7278	-224.589	-64.6741	-63.6976	-0.135068	-37.4713	0
0.1853	-20.3565	27.2822	8.15186	50.1984	-245.945	-64.6741	-72.5434	-34.6111	-38.3859	0
0.1860	-23.4019	44.6755	24.0086	44.0968	-237.399	-81.1665	-70.7133	-81.9185	-37.7672	0
0.1867	-34.996	52.6006	28.5847	24.8682	-204.442	-55.2072	-59.1221	-97.1812	-27.7067	0.32197
0.1873	-37.1332	47.1302	10.2803	9.00098	-162.324	-27.4541	-38.6761	-81.3107	-16.1129	0.32197
0.1880	-31.9506	31.5604	-4.36327	7.7743	-138.825	-13.1042	-21.2804	-61.1519	-9.0921	0.32197
0.1887	-25.2719	19.357	6.61939	15.1025	-138.529	0.024913	-17.62	-47.1386	-9.38799	-0.32197
0.1893	-17.8987	9.53825	14.8564	25.7763	-129.367	18.336	-34.7017	-30.3227	-15.4942	-0.64394
0.1900	-12.7161	12.3436	3.87373	28.835	-122.347	52.5166	-49.0471	-4.3897	-18.8567	-0.32197
0.1907	-8.17464	16.9023	-4.66125	19.372	-127.543	83.035	-49.0471	17.2549	-17.6193	0
0.1913	1.01515	3.15604	-0.702379	16.3133	-117.766	97.9828	-45.9968	14.5198	-17.9421	-0.32197
0.1920	4.9689	-3.57684	2.95851	21.2041	-97.0251	108.969	-45.6918	-2.56629	-23.1068	-0.32197
0.1927	5.55662	-4.13792	-1.6176	21.8095	-80.2286	105.905	-43.8616	2.02602	-24.6401	0
0.1933	18.1124	-12.4137	-12.6003	20.296	-69.243	84.2557	-31.0413	20.6316	-17.3234	0
0.1940	28.7448	-12.4137	-25.4134	16.6319	-60.6964	61.0617	-17.001	26.1018	-10.3026	-0.32197
0.1947	20.5168	1.33255	-28.1803	12.9678	-50.9408	43.3486	-20.9753	37.1098	-10.0067	-0.32197
0.1953	-0.213716	17.1829	-19.0068	15.1025	-55.8186	37.2449	-29.2112	56.3232	-11.8359	0
0.1960	-14.8533	15.0788	-11.3871	19.6747	-72	41.8289	-22.1955	46.2607	-11.2172	0.32197
0.1967	-14.8533	2.24429	-1.00036	22.1121	-64.6622	54.9581	-18.5351	17.2549	-11.2172	0
0.1973	-21.2648	6.80301	17.9213	21.2041	-45.448	76.9313	-23.7206	7.49626	-13.0464	-0.32197
0.1980	-33.5	12.9047	20.0497	17.8427	-38.4283	83.6329	-24.0256	-7.15859	-11.5131	0
0.1987	-28.3174	2.8755	4.49097	13.5732	-34.4625	63.2043	-24.0256	-50.7854	-9.68389	-0.32197
0.1993	-16.7233	-0.210403	0.510821	9.30367	-28.6516	40.9071	-24.9407	-67.2637	-9.68389	-0.64394
0.2000	-13.945	9.25771	9.36506	10.2117	-23.4769	38.4657	-21.8904	-36.7384	-6.64422	-0.64394
0.2007	-15.4944	13.5359	8.44984	9.30367	-20.423	42.4517	-25.8558	-29.7149	-5.72964	-0.32197
0.2013	-11.2201	10.8007	-0.0851369	7.7743	-16.139	41.231	-30.1263	-37.6501	-6.32143	-0.32197
0.2020	-1.12201	10.1695	-2.23484	11.1357	-8.52548	40.9071	-21.5854	-21.4758	-3.28176	-0.32197
0.2027	2.24402	8.6265	-4.06529	9.90904	-1.18763	37.2449	-16.6959	-18.7406	-3.57766	-0.32197
0.2033	2.24402	4.69899	-7.42819	4.73149	4.30516	31.4651	-18.8401	-33.0916	-4.81505	-0.32197
0.2040	5.55662	5.3302	-5.27849	5.63955	8.5679	32.063	-14.2557	-28.1954	-1.74848	0
0.2047	4.38118	6.80301	-1.6176	8.37967	12.5337	33.5827	-7.85005	-1.35068	1.29119	0
0.2053	-6.30463	3.43657	-3.44804	4.41287	16.2027	27.479	-9.68023	15.7354	-0.537994	0
0.2060	-15.4944	2.52483	-4.06529	0.764685	18.9384	22.5961	-11.8154	4.15333	-2.98587	-0.32197
0.2067	-13.3573	7.15369	-0.0851369	3.20212	21.3985	25.0376	-5.71484	-10.1976	-1.45258	0
0.2073	-9.67066	9.53825	0.830085	3.80749	24.1343	24.7386	-1.44441	-10.5015	0.376596	0
0.2080	-10.5789	6.24194	-1.91558	0.764685	27.1882	19.2577	-5.40981	-6.24688	-1.15669	0
0.2087	-6.30463	5.61073	-2.8308	0.764685	29.0121	17.1152	-6.01987	3.54553	-0.833891	0
0.2093	-0.213716	9.25771	-1.6176	1.06737	30.8572	17.1152	-3.88465	14.2159	0.376596	0
0.2100	0.374003	7.71476	-2.53282	-0.461997	32.3841	15.5955	-4.18968	18.2004	-0.537994	0
0.2107	3.15231	3.43657	-4.98051	0.764685	33.296	15.5955	-2.96956	13.3042	0.376596	0
0.2113	4.06061	3.15604	-4.98051	1.67275	34.5049	15.2717	-0.529318	4.76114	1.29119	0
0.2120	-3.90032	5.61073	-1.31962	1.06737	35.4168	13.752	0.385774	2.32992	0.995289	-0.32197
0.2127	-15.1738	9.53825	2.95851	1.06737	35.7349	13.1541	0.995835	5.36894	0.995289	-0.64394
0.2133	-18.8605	11.7124	3.57575	0.143378	36.0318	11.3105	1.30087	9.01577	0.995289	0
0.2140	-13.0367	9.53825	-0.0851369	-1.38599	36.6469	9.49185	1.30087	7.19235	0.376596	0
0.2147	-4.80861	8.6265	-1.31962	0.143378	36.6469	11.0115	4.05511	3.54553	1.61398	-0.64394
0.2153	-0.53429	8.6265	-0.4044	1.67275	37.2619	11.0115	5.8853	-0.742872	2.82447	-0.32197
0.2160	-1.76316	6.52248	-2.53282	-1.06737	37.8769	7.05038	2.83499	-4.9975	0.672492	0
0.2167	-0.854865	4.69899	-4.36327	-2.59674	37.8769	5.50577	0.995835	-1.95848	-0.242097	-0.32197
0.2173	4.38118	4.97953	-4.36327	-0.764685	37.8769	6.72651	3.44505	2.32992	1.90988	-0.32197
0.2180	2.83174	6.52248	-4.36327	-0.764685	37.2619	6.1286	4.05511	2.63382	2.20578	0.32197
0.2187	-2.99203	8.6265	-3.44804	-2.29406	36.3499	4.6089	2.52996	4.45723	0.672492	0.32197
0.2193	-0.854865	9.25771	-3.44804	-1.38599	35.7349	5.20682	3.75008	7.80016	1.29119	-0.64394
0.2200	9.83094	6.24194	-8.02415	-0.461997	35.7349	6.72651	6.80039	9.92747	2.82447	-0.96591
0.2207	21.7456	3.15604	-13.8347	-1.38599	35.4168	5.50577	5.8853	11.4808	2.52857	-0.32197
0.2213	27.8365	4.41845	-15.3459	-2.59674	34.823	3.68712	3.44505	11.7847	1.90988	0
0.2220	30.882	6.52248	-15.3459	-1.99137	34.208	3.38817	3.75008	10.569	2.52857	-0.64394
0.2227	38.2552	5.89127	-15.9632	-1.38599	33.9111	3.38817	4.66517	7.19235	2.82447	-0.96591
0.2233	37.2935	5.3302	-11.0891	-2.29406	33.296	2.76534	4.36014	5.06504	2.52857	-0.32197
0.2240	13.5175	7.43422	2.34126	-3.52074	32.681	2.16743	4.05511	6.58455	1.90988	0
0.2247	-11.2201	8.6265	9.36506	-3.21805	31.7691	1.84356	4.05511	8.71186	0.995289	0
0.2253	-23.4019	4.69899	5.70417	-1.68868	29.3302	3.38817	5.58027	10.8729	1.90988	-0.32197
0.2260	-30.134	0.420805	5.08693	0.143378	28.7152	5.50577	8.32554	13.6081	3.73906	-0.32197
0.2267	-18.8605	-0.771476	6.61939	-1.99137	29.0121	2.76534	5.8853	12.0886	2.20578	0
0.2273	15.0136	2.24429	7.23664	-3.21805	27.8033	1.54461	4.05511	13.912	1.29119	0
0.2280	33.9809	8.34597	9.66304	0.764685	26.5732	6.1286	9.24063	23.0628	4.65365	-0.32197
0.2287	18.1124	8.97717	7.8326	0.446066	26.5732	4.90786	9.24063	25.1901	4.03495	0.32197
0.2293	27.8365	3.43657	1.74531	-2.89943	26.2763	1.24565	4.66517	21.5433	1.29119	0
0.2300	48.8876	1.05201	0.830085	-0.159309	25.0463	4.28504	6.80039	20.9355	2.82447	-0.32197
0.2307	12.6093	1.61309	1.42604	1.06737	24.1343	5.20682	8.02051	16.951	3.44316	-0.32197
0.2313	-49.3684	1.61309	-2.8308	-2.89943	23.8374	0.946694	3.14002	14.2159	0.995289	-0.32197
0.2320	-129.298	0.140268	-7.42819	-3.82343	23.5193	-0.274043	2.22493	16.951	0.376596	0
0.2327	-193.413	-0.771476	-9.25864	-1.99137	22.6074	1.54461	4.36014	20.0238	1.90988	-0.32197
0.2333	-148.212	-1.12215	-7.42819	-2.59674	22.6074	0.946694	3.75008	24.2784	1.90988	0
0.2340	-49.6356	-3.22617	-4.06529	-4.12611	22.6074	-0.274043	1.6059	28.8707	0.376596	0
0.2347	-61.5503	-0.771476	0.212842	-1.68868	21.0804	2.16743	4.05511	35.5903	1.90988	-0.32197
0.2353	-115.246	4.41845	3.87373	-0.764685	19.8716	2.76534	5.27523	45.9568	2.82447	0
0.2360	-37.7743	8.06543	6.32142	-3.21805	19.2566	0.622825	2.83499	50.5491	0.672492	0
0.2367	76.6707	16.9023	13.0259	-3.21805	18.6415	0.622825	2.83499	34.3747	0.376596	0
0.2373	128.55	24.547	20.0497	-1.38599	16.4996	1.84356	3.44505	2.93772	0.995289	0
0.2380	150.51	22.3728	21.5822	-0.461997	13.7638	1.84356	3.14002	-13.5405	0.672492	0
0.2387	196.939	17.8141	18.8365	0.143378	11.9187	1.84356	3.44505	-3.78189	0.672492	-0.64394
0.2393	306.79	15.3594	13.9412	-0.461997	11.6218	1.54461	2.83499	-3.78189	0.672492	-0.32197
0.2400	297.92	12.9047	7.8326	-1.06737	11.9187	0.622825	1.9199	-25.7642	0.672492	0.32197
0.2407	66.8932	11.9929	5.40619	0.143378	11.6218	1.84356	3.44505	-31.2682	1.61398	0
0.2413	-114.071	11.4319	7.23664	-0.159309	11.3249	1.84356	3.44505	-20.5641	1.61398	0
0.2420	-120.482	9.25771	5.40619	-2.29406	11.3249	-0.597912	0.690805	-16.0055	-0.242097	0
0.2427	-104.293	4.69899	-1.91558	-2.29406	11.0068	-0.274043	0.0807434	-13.5405	-0.537994	-0.32197
0.2433	-115.888	-0.490939	-8.34342	-1.99137	11.0068	0.323869	1.30087	-11.4132	0.376596	-0.32197
0.2440	-111.293	-4.48859	-10.4718	-3.21805	11.0068	-1.81865	0.0807434	-15.7016	-0.833891	0
0.2447	-57.5965	-7.22382	-8.93937	-1.68868	10.7099	0.323869	1.6059	-19.0445	0.0806991	-0.32197
0.2453	-7.53349	-9.32784	-6.49169	0.446066	10.413	3.38817	4.66517	-18.4367	2.82447	-0.32197
0.2460	-27.3557	-12.9748	-6.81095	-2.29406	10.413	-0.597912	1.6059	-21.4758	0.0806991	-0.32197
0.2467	-62.1914	-13.9567	-7.42819	-3.21805	9.47983	-2.1176	-0.834348	-23.6368	-1.74848	-0.32197
0.2473	-63.0997	-10.5903	-5.27849	-0.159309	8.5679	1.84356	2.52996	-18.4367	1.29119	-0.32197
0.2480	-52.7345	-5.40033	-5.27849	-0.461997	8.5679	1.84356	2.52996	-14.486	1.90988	0
0.2487	-40.1786	0.140268	-7.72617	-3.82343	7.95288	-2.71552	-1.74944	-20.2602	-1.45258	-0.32197
0.2493	-24.3102	3.43657	-8.02415	-3.82343	6.74404	-3.6373	-2.66453	-25.7642	-2.07128	-0.96591
0.2500	-15.1738	2.24429	-4.36327	-1.38599	6.42592	0.024913	0.690805	-21.1719	0.672492	-0.64394
0.2507	-17.8987	0.420805	-5.27849	-1.38599	6.42592	0.323869	0.385774	-17.8289	0.672492	0
0.2513	-24.0431	3.43657	-8.93937	-1.99137	5.83211	-0.896868	-0.224287	-16.9172	-0.242097	-0.32197
0.2520	-22.4936	4.06778	-4.06529	-0.159309	5.51399	0.622825	2.52996	-12.3249	0.995289	-0.32197
0.2527	-16.7233	-6.31208	2.66053	-1.68868	5.51399	-0.274043	1.6059	-8.6781	-0.242097	0
0.2533	-11.4872	-11.7825	3.87373	-2.59674	5.51399	-1.49478	-0.224287	-6.24688	-1.45258	0
0.2540	-8.17464	-5.68087	3.25649	-0.461997	5.21709	0.024913	1.30087	-4.6936	-0.242097	-0.32197
0.2547	-14.8533	-1.40268	2.66053	1.06737	4.89897	1.54461	3.14002	-2.56629	0.672492	-0.32197
0.2553	-24.3102	0.140268	2.04329	0.764685	4.30516	1.24565	3.44505	0.472737	0.672492	-0.32197
0.2560	-11.8078	1.05201	1.74531	1.06737	4.60206	1.84356	3.44505	3.24162	1.29119	-0.32197
0.2567	15.9753	-1.12215	-2.8308	-0.764685	6.12902	0.323869	0.995835	3.24162	0.672492	-0.32197
0.2573	57.4362	-5.04966	-9.8546	-2.59674	7.04095	-1.19582	-1.13938	2.93772	-0.242097	-0.32197
0.2580	83.4027	-7.85503	-15.3459	-0.764685	7.35906	-0.274043	0.690805	5.97674	1.29119	0
0.2587	53.803	-10.2396	-19.6241	-1.68868	7.95288	-1.81865	0.690805	8.71186	0.672492	-0.32197
0.2593	27.8365	-12.0631	-19.922	-3.82343	8.5679	-3.33834	-1.13938	13.912	-1.15669	-0.32197
0.2600	17.4713	-6.87315	-9.55662	-0.461997	6.74404	0.622825	2.22493	30.998	1.29119	0
0.2607	-36.866	3.43657	6.00215	1.37006	3.07511	2.16743	5.27523	47.7802	1.90988	0
0.2613	-104.614	11.0812	15.7716	-1.38599	0.933137	-1.81865	1.9199	51.4608	-1.74848	0
0.2620	-122.299	17.8141	27.3715	-0.461997	-0.890722	-0.896868	1.30087	54.8037	-2.98587	-0.32197
0.2627	-127.161	20.5493	36.2258	1.06737	-3.3296	0.323869	2.22493	53.2842	-2.36717	0
0.2633	-165.63	16.2711	33.1608	-1.06737	-4.24153	-2.41656	-0.224287	44.1334	-4.19635	0
0.2640	-233.378	17.8141	32.5649	-0.159309	-3.0327	-0.274043	0.690805	42.6138	-2.98587	-0.32197
0.2647	-369.782	25.108	36.2258	3.80749	-1.18763	4.90786	5.58027	48.388	0.995289	-0.64394
0.2653	-454.307	18.7258	25.2431	0.143378	0.933137	0.946694	3.44505	33.7332	0.0806991	-0.32197
0.2660	-295.943	-0.210403	4.17171	-4.73149	1.86627	-3.93625	-2.05447	-8.3742	-2.98587	0
0.2667	34.248	-10.5903	-5.89573	-0.461997	2.46009	0.622825	1.6059	-32.7877	0.0806991	-0.32197
0.2673	344.03	-9.32784	-8.34342	1.37006	1.86627	2.46639	4.05511	-27.8915	1.29119	-0.32197
0.2680	439.24	-9.95905	-13.2175	-2.89943	1.86627	-2.41656	-1.13938	-29.7149	-2.66307	-0.32197
0.2687	317.796	-12.0631	-18.7088	-1.68868	2.46009	-1.19582	-0.529318	-36.4345	-1.45258	-0.32197
0.2693	153.876	-3.85738	-29.3935	1.67275	2.46009	2.16743	4.05511	-30.9643	2.20578	0
0.2700	27.2488	9.88892	-36.7153	-0.461997	2.46009	-0.597912	2.22493	-25.7642	0.672492	0
0.2707	-42.6364	7.43422	-29.6915	-1.99137	2.7782	-1.19582	-0.224287	-26.372	-0.833891	-0.32197
0.2713	-47.4984	-11.1513	-27.2438	0.143378	2.7782	1.24565	2.22493	-28.1954	0.995289	-0.32197
0.2720	-16.4027	-20.0584	-27.8611	-1.99137	1.86627	-1.49478	0.385774	-37.954	-1.15669	-0.32197
0.2727	23.5622	-12.6943	-11.3871	-4.4288	1.25125	-3.93625	-2.96956	-46.8347	-3.57766	0
0.2733	49.5287	2.24429	17.3041	0.143378	0.63623	0.946694	2.52996	-37.954	0.0806991	0
0.2740	45.8421	17.1829	38.3542	1.37006	-0.2757	1.84356	4.9702	-30.6604	1.29119	0
0.2747	36.7057	15.0788	24.6259	-2.29406	0.339323	-2.1176	0.0807434	-33.6994	-2.07128	-0.32197
0.2753	47.7121	-2.94564	-6.19371	-1.99137	1.25125	-1.81865	-0.529318	-38.8995	-2.07128	0
0.2760	65.7177	-16.3413	-5.27849	-1.68868	0.933137	-0.896868	0.690805	-50.4815	-0.833891	0
0.2767	61.7105	-15.7802	18.2193	-4.12611	0.933137	-3.6373	-1.74944	-41.0268	-2.66307	0
0.2773	54.1236	-7.50436	22.7954	-2.89943	1.25125	-2.1176	-0.834348	-12.021	-1.74848	0
0.2780	66.626	-0.210403	7.53462	1.06737	0.339323	2.16743	3.75008	-4.3897	1.90988	-0.64394
0.2787	74.8541	2.8755	2.66053	-0.461997	0.339323	-0.274043	1.9199	-8.07029	0.995289	-0.64394
0.2793	61.4434	-6.31208	2.34126	-3.21805	0.933137	-4.26012	-2.66453	0.776639	-1.45258	0
0.2800	24.2034	-21.5312	-10.4718	-1.99137	0.63623	-2.71552	-1.13938	17.5588	-0.537994	0
0.2807	-3.25917	-23.7053	-14.75	-1.06737	0.339323	-1.19582	0.385774	27.959	0.672492	-0.32197
0.2813	41.3006	-15.7802	-6.19371	-2.29406	1.25125	-2.41656	-1.74944	15.7354	-0.833891	-0.32197
0.2820	94.9968	-6.59261	1.12806	-0.764685	1.86627	-0.896868	-0.224287	1.38444	0.376596	0
0.2827	93.1802	-0.210403	2.66053	0.143378	1.54816	0.323869	2.52996	3.54553	1.61398	0.32197
0.2833	92.272	1.96376	2.34126	-1.68868	1.25125	-2.1176	0.385774	-1.65458	-0.537994	-0.32197
0.2840	129.191	-2.6651	-0.702379	-1.99137	-0.593815	-1.49478	0.0807434	-17.2211	-1.45258	-0.96591
0.2847	123.047	-7.85503	-4.06529	-0.461997	-0.593815	-0.896868	1.9199	-20.5641	-0.833891	-0.64394
0.2853	-32.5917	-3.85738	-0.0851369	-1.68868	1.86627	-4.26012	-0.224287	-5.30141	-2.07128	-0.32197
0.2860	-172.95	-10.5903	1.42604	-2.89943	-8.20737	7.05038	1.9199	-8.07029	-1.45258	-0.32197
0.2867	-164.401	-6.59261	-1.91558	1.06737	-5.47158	5.50577	6.19033	-13.8444	0.995289	-0.32197
0.2873	-156.761	15.0788	-4.98051	1.37006	11.0068	-12.4814	2.83499	23.0628	-0.537994	-0.32197
0.2880	-180.27	4.41845	-8.34342	-2.29406	4.30516	-5.48086	0.690805	52.0686	-2.07128	-0.32197
0.2887	-129.298	-8.4161	-1.00036	-1.68868	-1.18763	0.024913	2.22493	60.9155	-1.45258	-0.32197
0.2893	-26.768	0.140268	7.23664	-1.68868	2.16318	-4.26012	2.22493	70.0664	-0.833891	0
0.2900	-22.4936	5.3302	-3.44804	-2.89943	1.54816	-3.6373	0.690805	51.1569	-1.45258	-0.32197
0.2907	-28.3174	0.420805	-15.0479	-0.764685	2.7782	-1.19582	1.9199	8.71186	-1.15669	-0.32197
0.2913	118.185	-3.57684	-11.685	0.143378	2.7782	0.323869	4.05511	-42.8502	0.376596	0
0.2920	230.493	0.420805	-7.10893	-1.38599	1.86627	-1.49478	2.22493	-87.1186	0.0806991	0
0.2927	221.357	5.89127	-5.27849	-2.29406	0.933137	-3.33834	-0.224287	-99.9163	-1.45258	0
0.2933	180.75	12.3436	2.34126	-0.764685	0.0212077	-1.49478	1.9199	-76.7184	-0.833891	0
0.2940	82.7616	26.3704	15.1757	-1.06737	-0.890722	-2.1176	1.6059	-34.3072	-1.74848	0
0.2947	76.4035	49.2342	34.6933	-0.764685	-3.0327	-2.41656	0.995835	0.168835	-3.57766	-0.32197
0.2953	143.51	68.1704	53.317	2.58081	-4.85656	1.84356	5.27523	17.5588	-1.45258	-0.32197
0.2960	-45.6818	67.2587	47.8257	2.27812	-5.15346	1.24565	4.9702	21.2394	-1.45258	-0.32197
0.2967	-309.034	55.6865	29.8192	0.446066	-5.47158	-0.597912	2.22493	20.6316	-2.66307	0
0.2973	-232.47	38.5738	23.7106	1.97544	-5.15346	0.946694	3.44505	20.9355	-1.45258	-0.32197
0.2980	0.694578	4.69899	13.3239	0.764685	-3.3296	-0.896868	1.6059	15.1276	-1.45258	-0.32197
0.2987	81.8533	-21.8819	-14.4307	-1.99137	-2.09956	-3.6373	-1.74944	7.19235	-2.66307	0
0.2993	103.545	-16.3413	-25.7326	-0.159309	-0.890722	-0.896868	0.995835	9.62357	-0.242097	0
0.3000	123.047	1.96376	-12.6003	0.446066	-0.2757	0.024913	2.22493	12.0886	1.90988	-0.32197
0.3007	89.1731	9.88892	-5.89573	-1.99137	-1.18763	-3.03939	-2.05447	2.93772	-0.537994	-0.32197
0.3013	38.5223	3.15604	-8.02415	-0.764685	-2.09956	-1.49478	-1.74944	-5.30141	-0.537994	0
0.3020	-31.9506	-8.4161	-10.1739	-0.159309	-2.09956	-0.597912	-0.834348	-2.87019	0.0806991	-0.32197
0.3027	-103.385	-14.5178	-15.3459	-2.59674	-1.80265	-3.03939	-3.57962	-4.6936	-1.74848	-0.32197
0.3033	-130.527	-15.4295	-12.6003	-1.06737	-1.18763	-0.896868	-1.74944	-16.0055	-1.15669	0
0.3040	-115.567	-18.796	-2.53282	0.446066	-1.18763	1.54461	0.690805	-24.8525	-0.537994	-0.32197
0.3047	-79.8764	-25.8094	4.17171	-0.764685	-1.18763	0.323869	0.0807434	-39.2034	-2.36717	-0.32197
0.3053	-44.7735	-24.8976	9.9823	-0.764685	-1.18763	0.024913	0.995835	-58.4168	-2.36717	-0.32197
0.3060	-27.0885	-17.253	10.5783	-1.38599	-0.2757	-0.896868	0.0807434	-56.5934	-2.36717	-0.32197
0.3067	-21.9059	-13.9567	-0.702379	-1.38599	0.339323	-1.81865	-1.44441	-34.915	-2.98587	0
0.3073	-11.4872	-9.67852	-16.2611	0.446066	-0.2757	0.323869	1.30087	-1.04677	-1.74848	0
0.3080	4.06061	1.61309	-15.9632	1.67275	-0.593815	3.0643	4.36014	37.1098	-0.242097	-0.32197
0.3087	4.64833	8.97717	-3.74602	0.446066	0.0212077	1.24565	4.66517	45.0451	-1.15669	-0.32197
0.3093	-9.99123	6.24194	-1.00036	-1.99137	-0.2757	-3.33834	5.58027	24.5823	-2.07128	-0.64394
0.3100	-22.8142	-0.771476	-1.31962	-2.29406	-1.18763	-5.48086	8.9356	6.88845	-0.537994	-0.64394
0.3107	-34.0877	-5.40033	5.40619	-1.99137	-1.80265	-6.07877	8.63057	10.569	-0.537994	-0.32197
0.3113	-31.3628	-5.40033	11.8127	-1.38599	-2.09956	-4.55908	6.19033	36.1981	-1.15669	0
0.3120	-12.7161	-2.94564	9.06708	0.143378	-2.41767	-1.81865	5.8853	48.6919	-0.537994	0
0.3127	4.64833	-1.40268	-1.31962	1.06737	-2.41767	-0.896868	4.36014	34.9825	-0.833891	0
0.3133	23.5622	-3.57684	-4.66125	0.446066	-2.41767	-0.274043	0.995835	27.6551	-1.74848	0
0.3140	38.8429	-3.85738	-2.23484	0.446066	-2.71458	0.946694	-2.96956	30.998	-2.36717	0
0.3147	36.118	6.80301	-12.0043	1.06737	-2.09956	0.946694	-6.3249	36.8059	-2.98587	-0.32197
0.3153	-2.35088	23.004	-21.4545	1.37006	-1.80265	0.323869	-7.23999	42.6138	-2.66307	-0.32197
0.3160	-66.4657	30.9292	-7.10893	1.67275	-2.41767	0.024913	-6.01987	41.0606	-1.45258	0
0.3167	-87.1962	29.3862	13.3239	1.67275	-1.80265	-0.896868	-6.01987	39.2372	-1.15669	0
0.3173	-49.6356	30.0174	13.9412	1.37006	-1.18763	-2.41656	-6.01987	44.7412	-1.15669	-0.32197
0.3180	-10.8995	30.9292	14.2391	0.143378	-0.593815	-5.15699	-6.93496	64.8662	-2.36717	0
0.3187	0.374003	24.8275	32.5649	-0.764685	0.0212077	-7.29951	-7.54502	86.2407	-2.98587	-0.32197
0.3193	-7.53349	19.357	40.1846	-0.461997	-0.890722	-8.52024	-4.79975	83.8095	-1.74848	-0.32197
0.3200	-22.4936	30.9292	15.1757	0.446066	-1.50574	-8.52024	-2.96956	52.9803	-0.242097	0
0.3207	-31.9506	35.8386	-6.19371	0.764685	-1.18763	-9.74098	-0.834348	-9.89371	-0.242097	-0.32197
0.3213	-30.7217	7.15369	-8.34342	-0.159309	-1.50574	-10.9617	9.24063	-42.8502	0.376596	-0.32197
0.3220	-31.0423	-17.253	-19.3261	-1.38599	-2.09956	-7.92233	16.8664	-0.43897	0.672492	-0.32197
0.3227	-27.6762	-22.1624	-20.5393	-2.89943	-2.41767	0.622825	12.596	20.6316	-1.15669	-0.32197
0.3233	-7.85407	-25.2483	-4.98051	-1.38599	-2.71458	8.86903	8.63057	-5.60531	-0.242097	0
0.3240	12.6093	-19.1466	-5.57647	1.06737	-2.71458	9.16798	6.19033	-6.85468	0.995289	0
0.3247	5.55662	6.52248	-3.15007	-1.06737	-0.890722	3.98608	-2.05447	9.62357	-1.15669	-0.32197
0.3253	-13.945	34.9268	17.6021	-1.06737	1.25125	4.28504	-7.23999	16.951	-1.15669	-0.32197
0.3260	-12.7161	39.4855	16.0909	0.446066	1.86627	6.42755	-8.46011	19.7199	0.0806991	0.32197
0.3267	-7.53349	25.4587	-26.3286	-2.29406	1.25125	2.76534	-12.1205	17.8627	-2.36717	0
0.3273	-20.0359	24.547	-52.2741	-1.38599	0.339323	1.84356	-9.3752	46.5646	-1.45258	0
0.3280	-39.9115	41.309	-26.9458	1.97544	-0.2757	3.38817	-2.66453	112.174	2.20578	0
0.3287	-53.6428	48.3224	-22.3697	-0.764685	0.0212077	0.024913	-4.79975	134.764	-0.537994	0
0.3293	-65.2369	33.1033	-23.2849	-3.21805	-0.2757	-1.49478	-7.23999	103.631	-2.98587	0
0.3300	-74.6938	-1.12215	19.4325	-0.764685	-0.890722	0.024913	-2.3595	84.1134	-1.15669	-0.32197
0.3307	-69.5112	-37.4516	39.2694	-1.99137	-0.890722	-4.26012	0.995835	43.2217	-0.242097	-0.32197
0.3313	-46.9107	-40.4674	35.9278	-3.21805	0.0212077	-7.59846	3.75008	-77.6301	-0.242097	0
0.3320	-26.4474	-9.32784	52.6997	-0.159309	0.339323	-1.81865	10.7658	-189.939	1.61398	-0.32197
0.3327	-28.3174	20.8298	62.4692	-0.159309	0.63623	2.76534	11.6809	-178.965	0.376596	-0.64394
0.3333	-32.8589	28.4745	50.5713	-2.29406	0.63623	3.38817	7.41045	-94.7162	-1.45258	-0.32197
0.3340	-25.8597	23.004	39.8866	-0.159309	0.933137	12.8302	9.24063	-42.8502	-0.242097	-0.32197
0.3347	-24.6308	15.3594	32.5649	2.58081	1.86627	24.1407	7.10542	-29.411	-0.833891	-0.32197
0.3353	-30.134	7.15369	23.4126	2.27812	2.46009	28.1019	-3.88465	-19.0445	-4.19635	-0.32197
0.3360	-27.3557	5.3302	18.8365	3.20212	3.39323	29.0236	-10.9004	0.776639	-4.19635	-0.32197
0.3367	-27.3557	8.06543	15.4736	3.20212	3.98704	24.4396	-6.3249	22.1511	-1.15669	0
0.3373	-64.5957	9.25771	9.06708	0.446066	3.07511	14.0509	2.52996	25.494	-0.242097	0
0.3380	-115.888	8.06543	9.66304	-1.68868	1.54816	2.16743	14.4262	19.1121	1.29119	-0.32197
0.3387	-114.979	2.8755	13.3239	-5.95817	-0.593815	-14.325	28.7716	23.3667	4.94954	-0.32197
0.3393	-75.9227	-8.4161	13.6432	-9.00098	-2.71458	-27.7531	32.737	32.2136	4.65365	-0.64394
0.3400	-57.9171	-18.796	21.2629	-3.52074	-1.80265	-29.2728	28.4665	30.998	1.61398	-0.64394
0.3407	-60.642	-15.4295	29.4999	2.27812	0.339323	-22.2473	20.5268	18.8082	-2.07128	0
0.3413	-33.7672	-1.75335	27.9888	1.67275	0.0212077	-16.7664	5.8853	11.1768	-4.81505	0
0.3420	18.3796	11.7124	34.9913	2.27812	-0.890722	-18.2861	-7.85005	9.01577	-6.02553	-0.32197
0.3427	23.8828	23.2845	28.2867	7.47161	-0.593815	-22.8701	-15.4758	6.88845	-6.32143	0
0.3433	-2.99203	22.0923	-14.75	9.60636	0.933137	-28.6749	-13.6456	9.01577	-6.32143	0
0.3440	3.41946	12.6242	-31.8412	7.7743	1.25125	-32.636	-2.3595	9.62357	-4.81505	0
0.3447	24.5239	18.0946	-5.89573	5.94224	1.25125	-33.5578	7.10542	19.7199	-3.28176	0
0.3453	53.803	22.0923	10.8975	3.80749	1.25125	-23.7919	8.63057	60.3077	-4.19635	0
0.3460	97.134	6.80301	7.23664	2.58081	0.0212077	3.98608	8.32554	101.807	-5.72964	0
0.3467	104.774	-0.210403	0.510821	3.20212	-0.593815	19.5567	6.80039	90.4953	-4.81505	0
0.3473	60.8022	9.88892	0.212842	3.80749	-1.18763	12.2323	4.05511	56.0193	-2.07128	0
0.3480	-1.44258	16.6218	3.25649	2.89943	-2.09956	6.1286	-1.44441	51.1569	-0.242097	0
0.3487	-50.8644	11.9929	2.04329	0.764685	-1.80265	6.1286	-5.71484	48.388	-0.537994	0
0.3493	-65.504	-1.12215	-4.36327	-0.461997	-0.2757	10.3887	-7.54502	30.998	-0.833891	0
0.3500	-32.2711	-10.2396	-8.6414	-1.06737	1.54816	14.0509	-9.98526	19.416	-0.833891	-0.32197
0.3507	26.9282	-5.68087	-9.8546	-1.06737	3.07511	10.7126	-11.8154	9.92747	-1.74848	-0.32197
0.3513	63.26	1.33255	-9.25864	2.27812	2.7782	7.05038	-6.93496	2.63382	-0.537994	0
0.3520	53.4825	0.420805	-6.19371	3.80749	2.16318	2.46639	-1.44441	5.67284	0.376596	0
0.3527	20.2496	-8.13556	-6.19371	1.06737	2.7782	-3.6373	-2.05447	5.67284	-2.07128	-0.32197
0.3533	-6.94578	-10.8708	-8.6414	1.06737	3.39323	-3.03939	-1.13938	-0.742872	-2.07128	-0.32197
0.3540	-33.7672	0.420805	3.87373	2.27812	2.7782	-1.19582	2.52996	6.28065	-0.833891	0
0.3547	-47.819	14.4476	30.4152	0.764685	2.16318	-4.26012	4.36014	22.455	-0.833891	0
0.3553	-22.1731	23.6352	42.0151	1.37006	2.16318	-1.49478	8.32554	30.6941	0.672492	0
0.3560	-9.67066	19.9181	23.0934	1.37006	1.86627	4.28504	9.85069	26.7434	1.90988	0
0.3567	-33.5	4.06778	-2.23484	-0.764685	2.16318	3.0643	5.58027	32.2136	0.672492	-0.32197
0.3573	-37.1332	-1.12215	-6.19371	-1.68868	2.16318	6.72651	7.10542	53.892	1.90988	-0.32197
0.3580	-13.3573	14.7282	-8.02415	-2.29406	1.86627	18.9339	12.2909	25.494	3.73906	-0.32197
0.3587	28.4777	34.2956	-29.3935	-3.52074	3.69013	23.8168	9.85069	-32.4838	1.29119	-0.32197
0.3593	87.9976	38.8543	-32.4372	-2.29406	5.21709	23.2189	7.71548	-31.5721	0.376596	-0.32197
0.3600	117.597	26.0198	-19.3261	-1.06737	6.12902	25.9593	8.63057	-2.26238	1.90988	-0.32197
0.3607	83.4027	0.701342	-21.1565	-2.59674	7.04095	28.1019	4.66517	15.7354	1.61398	-0.32197
0.3613	30.882	-34.0852	-19.922	1.06737	5.51399	25.6604	3.14002	27.3512	0.0806991	-0.32197
0.3620	0.106858	-53.302	-12.0043	5.03418	2.16318	15.8945	4.05511	14.2159	-1.74848	0
0.3627	-10.8995	-38.6439	-7.72617	3.20212	-1.50574	10.3887	0.0807434	-21.7797	-2.66307	0
0.3633	-11.8078	-19.7077	-10.1739	3.20212	-2.71458	17.1152	-4.18968	-36.4345	-1.15669	0
0.3640	-11.2201	-10.5903	-17.7936	5.03418	-0.890722	23.5179	-10.2903	-31.2682	-1.15669	0.32197
0.3647	-5.12919	4.97953	-18.0916	4.41287	-1.18763	21.3753	-17.62	-63.0091	-3.28176	0
0.3653	5.28947	17.8141	-2.23484	3.50481	-4.55965	11.9333	-20.6703	-116.091	-3.28176	-0.32197
0.3660	11.3804	9.25771	3.57575	3.50481	-6.0866	-0.896868	-26.1609	-129.226	-3.57766	-0.32197
0.3667	16.563	-14.8684	-8.93937	3.50481	-7.59235	-8.22129	-26.4659	-80.0951	-3.90046	0
0.3673	13.8381	-23.3547	-12.6003	3.80749	-0.2757	-12.4814	-15.1708	2.32992	-1.45258	-0.32197
0.3680	5.87719	-5.40033	-17.4956	3.50481	29.6271	-18.2861	-11.5104	52.9803	0.0806991	-0.32197
0.3687	6.19777	4.97953	-19.0068	1.06737	59.848	-14.9229	-15.1708	45.0451	0.376596	0
0.3693	9.5638	-5.9614	-3.15007	-3.82343	72.0425	-6.7016	-15.4758	24.2784	1.29119	-0.64394
0.3700	14.4258	-15.7802	-6.19371	-7.18485	72.9544	-9.44203	-9.98526	16.3432	3.12036	-0.64394
0.3707	30.6148	-25.2483	-22.0717	-7.79023	70.8336	-17.0654	7.41045	-4.9975	5.86413	-0.32197
0.3713	44.9338	-30.9993	-15.3459	-9.62229	76.0083	-19.8058	21.4508	-24.5485	8.9307	0
0.3720	36.7057	-24.8976	2.04329	-10.2277	73.5694	-18.909	17.4765	-2.56629	8.6079	-0.64394
0.3727	19.0207	-14.8684	22.1782	-8.69829	51.5983	-10.0399	8.63057	26.1018	7.10152	-0.64394
0.3733	8.6555	17.8141	31.0324	-8.39561	28.1002	-11.8835	0.690805	11.7847	6.77872	0
0.3740	2.51116	49.2342	6.32142	-2.89943	5.21709	-35.0775	-5.10478	-16.3094	3.44316	0
0.3747	8.6555	36.3996	-35.1828	8.07699	-14.3152	-49.7263	4.36014	-27.5876	0.0806991	0
0.3753	17.4713	-2.31443	-51.9761	10.833	-26.2127	-51.8689	31.5168	-14.7899	-0.242097	0
0.3760	21.1579	-44.1144	-35.8001	5.94224	-38.4283	-44.8434	45.8622	39.845	-2.07128	-0.32197
0.3767	32.4314	-66.1365	-26.6479	6.54762	-52.7647	-17.6882	31.5168	81.6484	-4.49225	0
0.3773	34.248	-44.1144	-40.3762	7.16892	-66.1891	14.0509	11.3758	62.7389	-5.72964	0
0.3780	27.5694	-3.85738	-64.7892	3.20212	-79.9317	36.3481	1.9199	1.38444	-5.72964	-0.32197
0.3787	29.9737	18.4453	-72.111	1.37006	-87.5665	40.9071	4.36014	-101.74	-3.57766	-0.32197
0.3793	22.0662	22.3728	-47.9959	0.143378	-83.2825	23.8168	2.22493	-135.946	-2.36717	-0.32197
0.3800	-4.16747	27.0017	-23.9022	-1.38599	-71.0881	8.86903	-8.46011	-48.6581	-2.36717	-0.32197
0.3807	-17.6316	24.8275	-12.3023	4.11018	-53.3797	4.28504	-15.4758	-14.1483	-2.98587	-0.64394
0.3813	-13.0367	0.701342	3.57575	12.0438	-34.7594	-4.26012	-14.5607	-45.8892	-4.81505	-0.32197
0.3820	-16.9904	-21.5312	24.3279	11.7411	-28.0577	-17.9872	-7.23999	-34.915	-6.32143	0
0.3827	-24.0431	-28.5446	43.2495	7.47161	-29.2666	-21.3504	0.995835	9.92747	-4.19635	0
0.3833	-20.3565	-31.911	53.9129	5.63955	-23.1588	-10.0399	3.14002	24.8862	-1.74848	0
0.3840	-16.7233	-29.1758	41.4191	2.58081	-17.9841	0.622825	-3.88465	-33.3955	-3.28176	0
0.3847	-13.0367	-10.2396	17.0061	1.97544	-20.423	4.6089	-9.98526	-99.9163	-4.19635	0
0.3853	-3.90032	15.0788	4.78895	3.80749	-24.0919	3.98608	-9.07017	-102.651	-1.74848	0
0.3860	3.41946	21.8117	-8.93937	3.20212	-27.1246	1.54461	-6.62993	-73.0716	-0.537994	0.32197
0.3867	5.87719	5.3302	-9.55662	2.89943	-26.8277	1.24565	-6.01987	-41.3307	-0.242097	0
0.3873	4.64833	-20.0584	25.5411	2.89943	-23.1588	6.72651	-8.76514	-1.35068	0.376596	-0.32197
0.3880	2.83174	-33.1735	50.2521	0.446066	-18.896	25.9593	-10.2903	43.5256	1.29119	-0.32197
0.3887	7.42664	-26.4406	50.5713	-4.12611	-12.1732	42.1279	-2.3595	47.7802	3.44316	0.32197
0.3893	16.563	-20.6194	39.5887	-9.3196	-3.0327	39.0885	7.41045	7.80016	5.86413	0
0.3900	19.929	-20.3389	18.8365	-11.757	3.69013	40.0103	16.8664	1.08054	9.84529	-0.32197
0.3907	9.83094	-13.3255	7.23664	-11.4543	13.4457	45.4911	27.8565	27.0473	11.9704	-0.32197
0.3913	-1.44258	-11.502	-7.72617	-10.833	38.4707	48.2316	30.2967	38.6294	10.1412	0
0.3920	-3.90032	-17.6037	-19.3261	-8.39561	70.5155	64.425	26.3313	35.5903	8.9307	0.32197
0.3927	-3.90032	-16.6919	5.40619	-8.39561	81.5011	87.918	30.2967	0.776639	7.39742	0
0.3933	-9.67066	-2.31443	30.1172	-10.5304	74.4813	108.347	45.5572	-58.1129	7.10152	-0.32197
0.3940	-28.5845	21.4611	34.6933	-4.4288	69.9217	118.436	54.4031	-77.6301	8.01611	0
0.3947	-46.9107	32.1214	36.843	2.58081	59.848	105.606	41.2868	-38.8995	6.48283	0
0.3953	-41.4075	19.357	22.4974	0.446066	38.1738	80.5935	10.7658	-7.15859	4.03495	0
0.3960	-14.5861	0.701342	5.70417	-1.38599	13.1488	58.6203	-19.4502	-19.6523	1.61398	0
0.3967	14.4258	-12.0631	9.66304	-1.99137	-13.1063	45.1922	-34.3967	-11.1093	-0.242097	0
0.3973	23.8828	-8.13556	4.78895	-1.99137	-26.2127	34.2055	-37.456	51.7647	-0.242097	0
0.3980	20.5168	-2.94564	-21.1565	4.11018	-27.4427	35.1273	-35.6168	74.0171	-1.74848	0
0.3987	14.7464	-9.32784	-37.6305	7.16892	-41.4822	53.7373	-38.6761	-4.3897	-4.81505	-0.32197
0.3993	4.9689	17.5335	-12.3023	2.27812	-57.6424	20.7774	-49.9622	-103.293	-5.40684	-0.96591
0.4000	0.106858	61.7882	33.7781	3.20212	-65.8922	-70.7778	-53.3175	-124.33	-3.90046	-0.96591
0.4007	-1.12201	59.8946	45.378	10.5304	-76.8778	-112.582	-50.8773	-41.9385	-4.81505	-0.32197
0.4013	-2.99203	44.956	35.3105	12.6651	-75.3509	-86.0495	-49.6572	77.3938	-6.64422	0
0.4020	-0.213716	69.3627	17.6021	8.69829	-56.1155	-40.2594	-40.5063	131.083	-5.11094	-0.32197
0.4027	0.374003	88.0184	-17.7936	2.58081	-25.3008	-0.896868	-20.9753	117.07	-3.28176	-0.32197
0.4033	-3.25917	46.2184	-44.335	-5.3528	1.54816	15.8945	7.71548	129.868	-0.242097	-0.32197
0.4040	-1.12201	-14.5178	-89.2022	-15.1185	8.88601	25.3614	45.2522	187.238	6.18693	-0.32197
0.4047	-0.213716	-44.1144	-160.93	-21.5227	7.95288	33.2838	74.2391	229.683	11.0558	-0.32197
0.4053	-14.2656	-36.8204	-147.5	-20.5987	4.30516	-7.29951	86.4492	221.747	11.0558	0
0.4060	-27.9968	2.8755	-52.8913	-15.7238	2.16318	-107.101	94.38	177.783	7.69331	-0.32197
0.4067	-28.9051	35.4879	5.08693	-10.833	0.0212077	-172.697	84.314	93.872	3.12036	-0.32197
0.4073	-22.4936	17.5335	14.2391	-5.3528	-9.73432	-131.516	55.9282	-18.1328	0.995289	0
0.4080	-20.9976	-7.22382	-2.8308	2.27812	-15.8421	-56.4279	31.8219	-112.444	-0.242097	-0.32197
0.4087	-33.7672	7.15369	-26.9458	9.60636	-16.7541	-27.7531	15.0362	-201.859	-2.98587	-0.32197
0.4093	-42.6364	8.06543	-19.3261	12.6651	-24.0919	-35.9993	5.27523	-203.986	-4.81505	0
0.4100	-32.5917	-24.6171	12.4087	12.3465	-25.6189	-65.5959	-17.62	-121.899	-6.94012	0
0.4107	-22.4936	-46.8496	52.0825	10.833	-21.9499	-90.3096	-53.9276	-81.0068	-9.68389	-0.32197
0.4113	-31.0423	-45.6573	84.4345	9.30367	-35.6713	-85.1277	-60.6473	-20.2602	-7.85471	0
0.4120	-35.9043	-38.6439	74.6651	8.37967	-48.7988	-64.6741	-45.0817	32.2136	-8.4734	0
0.4127	-18.2193	-44.1144	42.3343	9.60636	-42.3941	-45.1423	-39.2861	-11.4132	-13.0464	0
0.4133	-10.8995	-53.302	37.439	13.8758	-27.1246	-29.8956	-34.7017	-62.6714	-12.7505	-0.32197
0.4140	-25.2719	-42.9221	50.5713	13.5732	-8.82239	-25.3116	-26.4659	-59.3285	-9.0921	-0.32197
0.4147	-29.2257	-27.3523	45.6759	9.30367	-1.80265	-27.1303	-23.4156	-18.1328	-8.4734	0
0.4153	-17.311	-18.796	22.7954	7.7743	-7.59235	-26.8313	-20.3653	15.4315	-8.4734	0
0.4160	-7.53349	-11.502	5.08693	7.16892	-8.82239	-24.3898	-14.5607	-10.1976	-7.26292	0
0.4167	-1.76316	-9.95905	-0.0851369	6.24493	-6.38351	-21.9483	-12.1205	-70.9443	-6.02553	0
0.4173	-1.44258	-8.76677	1.12806	7.16892	-6.68042	-17.6882	-10.9004	-87.7265	-4.19635	0
0.4180	-11.4872	-2.6651	1.74531	6.54762	-5.15346	-14.6239	-9.68023	-63.313	-3.28176	0
0.4187	-16.9904	2.24429	-7.72617	3.50481	-0.593815	-15.2468	-11.8154	-49.2659	-5.11094	0
0.4193	-9.08294	-0.490939	-13.2175	2.58081	2.7782	-13.7021	-13.9507	-37.3462	-5.40684	0
0.4200	-4.80861	-6.31208	-0.702379	3.80749	3.07511	-9.44203	-15.4758	-17.2211	-3.90046	0
0.4207	-10.3118	-8.76677	10.2803	3.80749	4.89897	-7.59846	-16.6959	-11.4132	-2.98587	0
0.4213	-12.449	-7.50436	2.34126	4.11018	8.5679	-6.7016	-15.7808	-9.5898	-2.36717	0.32197
0.4220	-5.12919	-4.76912	-16.8784	2.58081	11.0068	-5.15699	-16.6959	5.36894	-3.28176	0.32197
0.4227	6.78549	1.96376	-27.8611	0.143378	12.2368	-1.49478	-17.001	17.8627	-4.49225	0
0.4233	7.42664	15.3594	-23.5829	-1.99137	13.4457	0.946694	-13.3406	27.6551	-2.66307	-0.32197
0.4240	-3.57975	20.2688	-14.1327	-4.73149	14.3788	-2.41656	-13.0356	42.9178	0.376596	-0.32197
0.4247	-3.57975	14.4476	-10.1739	-5.95817	12.2368	-6.7016	-9.07017	48.9958	5.27234	0
0.4253	3.15231	4.69899	-3.15007	-6.56355	9.18292	-12.1825	-1.44441	22.1511	7.10152	-0.32197
0.4260	11.701	-15.7802	-4.06529	-3.82343	6.42592	-12.8053	3.14002	-24.2446	3.44316	-0.32197
0.4267	20.8373	-18.796	-16.2611	0.764685	3.98704	-2.71552	11.9859	-24.2446	1.90988	0
0.4273	20.8373	7.15369	-5.27849	-1.68868	2.7782	8.57007	24.5011	12.0886	3.12036	-0.32197
0.4280	22.9745	14.7282	17.0061	-5.03418	6.12902	16.1934	30.6017	9.62357	2.82447	0
0.4287	37.9346	-0.771476	20.965	0.143378	10.413	11.6095	25.1112	-5.30141	2.20578	0
0.4293	42.2089	-10.8708	17.0061	3.20212	10.7099	-4.85803	5.58027	-2.56629	-0.242097	-0.96591
0.4300	15.9753	-5.04966	28.5847	1.97544	9.47983	-1.49478	-13.3406	0.168835	-5.72964	-0.96591
0.4307	-9.67066	15.7101	41.0998	6.24493	9.47983	23.5179	-13.3406	28.2629	-7.26292	0
0.4313	-12.1284	34.9268	9.36506	6.86623	7.95288	35.7252	-4.79975	102.719	-6.02553	-0.32197
0.4320	-11.2201	48.3224	-9.25864	1.97544	6.42592	30.5433	0.385774	188.183	-3.90046	-0.32197
0.4327	-3.90032	59.3335	12.1107	0.446066	5.21709	31.1412	0.995835	226.914	-1.45258	0
0.4333	13.5175	42.5013	-56.5522	1.06737	3.98704	36.0242	-3.88465	193.957	-2.07128	0
0.4340	15.0136	-8.13556	-199.987	3.20212	5.83211	33.5827	-8.46011	152.458	-4.49225	0
0.4347	5.28947	-46.8496	-226.23	6.24493	8.27099	25.3614	-8.15508	158.873	-4.81505	0
0.4353	3.15231	-43.8339	-96.8432	5.94224	8.88601	7.34933	-5.71484	146.346	-5.72964	0
0.4360	4.9689	0.140268	1.12806	4.41287	8.5679	-15.2468	-3.27459	62.1311	-6.32143	-0.32197
0.4367	3.74003	60.5258	-7.42819	4.11018	6.12902	-25.3116	0.385774	-88.0304	-3.90046	-0.32197
0.4373	0.106858	86.756	24.9238	3.80749	4.89897	-22.2473	1.30087	-224.111	-2.36717	0
0.4380	-4.48804	72.4486	100.015	3.80749	4.89897	-16.1436	1.30087	-230.831	-2.66307	0
0.4387	-9.99123	53.5124	110.678	2.89943	4.89897	-12.1825	-0.224287	-160.663	-3.90046	0
0.4393	-13.945	14.1671	93.5867	1.37006	8.27099	-8.8192	-5.10478	-114.571	-5.11094	0
0.4400	-14.8533	-57.8607	85.669	1.37006	15.9058	-5.48086	-3.57962	-65.7442	-3.90046	0
0.4407	-12.449	-81.0751	67.9605	2.27812	21.3985	-3.33834	5.8853	-20.2602	-1.74848	-0.32197
0.4413	-6.03748	-50.5667	50.2521	3.20212	23.5193	0.024913	9.54566	-21.4758	-1.45258	-0.32197
0.4420	2.83174	-35.9087	25.8391	4.41287	25.0463	5.20682	3.44505	-25.4603	-1.15669	0
0.4427	7.10606	-22.1624	-18.0916	1.97544	21.9924	3.68712	-4.49472	-12.3249	-2.66307	0
0.4433	5.55662	-17.8842	-33.9696	-0.461997	17.1146	0.323869	-6.93496	-19.9562	-4.19635	0
0.4440	6.78549	-29.4564	-2.23484	2.89943	15.2907	4.28504	0.0807434	-31.876	-1.45258	0
0.4447	13.197	-31.911	22.4974	4.11018	13.1488	6.72651	7.41045	-5.60531	0.672492	-0.32197
0.4453	22.9745	-34.6463	18.5173	1.06737	9.47983	3.38817	7.71548	35.5903	-0.833891	0
0.4460	36.3852	-34.3657	4.78895	-0.461997	4.30516	1.54461	6.19033	39.845	-1.74848	0
0.4467	44.9338	-30.0876	3.25649	-0.764685	-2.09956	3.0643	4.9702	20.0238	-1.15669	0
0.4473	43.705	-23.0741	20.0497	-1.06737	-4.55965	1.84356	2.83499	4.76114	-2.98587	-0.32197
0.4480	45.575	-4.76912	37.7582	1.37006	-4.55965	-2.1176	1.6059	-12.021	-3.28176	-0.32197
0.4487	36.118	19.0064	38.6734	3.80749	-4.24153	-4.26012	1.6059	-29.1071	-0.833891	-0.32197
0.4493	2.24402	38.5738	15.4736	-0.159309	-0.890722	-7.92233	0.995835	-30.0188	-1.45258	-0.32197
0.4500	-20.3565	44.6755	3.87373	-2.59674	2.46009	-7.59846	0.995835	3.84943	-2.07128	0
0.4507	-13.3573	45.8677	10.2803	1.67275	4.60206	-2.1176	1.6059	37.7176	-1.15669	0
0.4513	2.83174	48.9537	-5.27849	4.11018	6.74404	1.84356	-0.529318	-1.35068	-2.98587	-0.32197
0.4520	16.563	34.2956	-29.6915	3.80749	7.95288	7.94725	-0.834348	-68.7832	-3.90046	-0.32197
0.4527	18.1124	8.34597	-65.7044	4.41287	7.95288	11.9333	0.385774	-104.813	-3.28176	-0.32197
0.4533	8.92265	-1.12215	-101.419	4.11018	7.95288	8.86903	-1.74944	-122.506	-2.98587	0
0.4540	5.28947	0.701342	-59.9151	2.27812	7.65597	3.0643	-4.79975	-79.7912	-2.98587	0
0.4547	14.4258	7.71476	10.5783	2.89943	7.04095	0.024913	-3.57962	-2.56629	-1.74848	0
0.4553	33.6603	16.2711	21.8802	3.50481	7.04095	0.323869	-2.05447	46.2607	-0.833891	0
0.4560	44.0255	-0.210403	25.2431	1.37006	6.74404	-0.274043	-3.27459	86.5446	-1.45258	-0.32197
0.4567	41.5678	-48.3926	1.74531	1.37006	5.51399	-0.274043	-2.3595	106.974	-2.07128	-0.32197
0.4573	42.7967	-116.493	-109.337	0.446066	5.51399	-1.19582	-0.529318	139.018	-2.36717	0
0.4580	38.8429	-199.812	-190.834	-1.06737	6.12902	-3.33834	2.83499	186.022	-3.28176	0
0.4587	4.9689	-244.347	-147.18	0.143378	6.12902	-2.71552	6.49536	159.785	-2.07128	0
0.4593	-36.866	-226.604	-60.5111	1.37006	4.30516	4.6089	7.10542	45.349	-1.45258	-0.32197
0.4600	-40.8198	-197.358	1.74531	0.764685	3.39323	14.9727	5.8853	-81.9185	-2.36717	-0.64394
0.4607	-18.8605	-192.168	57.5951	1.67275	5.83211	14.3748	3.44505	-146.312	-2.36717	0
0.4613	0.694578	-196.095	91.7563	1.67275	5.21709	3.98608	1.30087	-109.675	-2.07128	0
0.4620	33.3397	-74.9734	55.1474	0.143378	7.65597	-0.597912	2.52996	-42.2424	-1.45258	0
0.4627	76.083	103.237	-20.2413	-1.38599	28.7152	1.24565	1.30087	-44.0658	-2.36717	0
0.4633	87.9976	102.045	-53.1893	-0.461997	52.5102	4.6089	-0.224287	-50.4815	-2.66307	0
0.4640	73.3046	-9.95905	-58.0847	2.27812	56.7941	7.34933	2.83499	-12.021	-0.537994	-0.32197
0.4647	47.9793	-89.6315	-63.874	1.67275	52.2133	6.42755	3.44505	39.2372	-1.15669	-0.32197
0.4653	16.563	-174.774	-24.8174	-0.461997	46.4236	4.28504	2.22493	85.0251	-2.66307	0
0.4660	-10.3118	-284.604	54.2322	-0.764685	34.823	4.28504	2.52996	139.018	-2.07128	0
0.4667	-41.7281	-336.784	103.973	-0.764685	19.8716	3.38817	2.22493	224.179	-2.36717	-0.32197
0.4673	-54.2305	-312.378	103.058	-1.38599	5.51399	1.84356	1.9199	245.249	-3.28176	-0.32197
0.4680	-26.4474	-222.045	85.0518	1.97544	-5.47158	5.20682	6.19033	172.313	-0.537994	-0.32197
0.4687	-3.90032	-85.6338	44.7607	2.89943	-10.9644	5.50577	8.32554	87.4563	1.29119	0
0.4693	-3.57975	34.5761	-10.7698	-0.764685	-11.8763	0.622825	4.05511	-14.7899	-1.15669	0
0.4700	8.01436	116.984	-28.4783	-1.06737	-14.3152	0.323869	2.83499	-131.353	-1.45258	0
0.4707	25.1116	74.5526	-33.9696	-0.461997	-18.896	1.24565	3.75008	-169.51	-1.15669	0
0.4713	22.0662	-100.923	-68.4501	-1.38599	-20.1049	0.622825	2.52996	-95.9656	-2.66307	0
0.4720	16.2424	-268.123	-81.8804	2.27812	-24.0919	4.90786	6.19033	-10.5015	-1.74848	0
0.4727	6.78549	-375.288	-70.5998	2.58081	-33.5505	8.57007	7.10542	-31.5721	-2.07128	-0.32197
0.4733	-19.7687	-450.332	-58.6806	-0.461997	-38.4283	8.57007	-0.529318	-115.179	-4.49225	0
0.4740	-35.3166	-528.18	8.74782	0.143378	-36.2863	11.0115	-3.57962	-117.914	-3.28176	0
0.4747	-30.4546	-579.448	120.149	0.143378	-27.4427	11.0115	-2.66453	-46.1931	-2.36717	-0.32197
0.4753	-32.5917	-373.394	186.067	-1.68868	-16.4572	6.42755	-4.49472	-35.2189	-3.90046	0
0.4760	-42.6364	136.551	168.06	-0.159309	-10.0524	5.20682	-3.27459	-141.112	-1.74848	0.32197
0.4767	-48.1396	543.049	107.017	2.27812	-6.68042	4.90786	0.385774	-253.421	1.61398	-0.32197
0.4773	-40.8198	608.624	54.2322	0.446066	-4.24153	1.54461	-0.529318	-218.337	1.29119	-0.32197
0.4780	-11.2201	438.339	22.1782	-0.461997	-1.50574	0.946694	-0.834348	-81.0068	1.61398	0
0.4787	18.1124	251.571	11.4935	-0.461997	2.16318	0.323869	0.0807434	-30.9643	3.12036	0
0.4793	28.1571	257.042	0.510821	-1.68868	3.98704	-2.1176	-1.74944	-49.2659	2.52857	0
0.4800	31.2026	377.322	-11.3871	-1.06737	3.98704	-0.597912	-0.834348	-1.04677	3.12036	0
0.4807	19.929	455.732	-1.6176	-0.461997	3.39323	1.84356	1.6059	84.7212	3.73906	0
0.4813	-17.8987	470.67	8.15186	-1.06737	2.46009	0.946694	-0.224287	128.348	1.90988	0
0.4820	-62.4585	432.517	0.510821	-1.38599	0.63623	-0.274043	-2.05447	143.611	-0.242097	-0.32197
0.4827	-71.3278	368.485	5.70417	-1.38599	-1.18763	0.024913	-1.13938	145.13	-1.74848	-0.32197
0.4833	-34.7289	317.497	19.1345	-1.06737	-1.80265	1.24565	0.0807434	118.893	-2.07128	-0.32197
0.4840	1.01515	297.018	13.6432	-0.461997	-1.80265	3.0643	1.9199	101.503	-1.45258	-0.32197
0.4847	16.8836	268.053	12.728	0.446066	-2.09956	3.68712	3.14002	118.589	-0.833891	0
0.4853	29.9737	177.089	33.1608	-0.159309	-2.41767	3.0643	2.52996	145.738	-1.74848	-0.32197
0.4860	41.5678	39.7661	31.9476	-1.38599	-2.71458	1.54461	0.690805	167.416	-3.57766	-0.64394
0.4867	41.3006	-82.2674	-37.0133	-1.38599	-3.0327	1.24565	0.0807434	129.868	-4.19635	-0.32197
0.4873	20.5168	-132.343	-90.4154	-0.159309	-3.62651	2.76534	0.995835	9.62357	-2.66307	-0.32197
0.4880	-6.94578	-189.432	-70.8978	0.446066	-5.15346	4.90786	1.30087	-76.1106	-2.36717	0
0.4887	-8.44179	-351.723	-64.1719	0.446066	-7.29544	5.20682	1.30087	-70.9443	-3.90046	0
0.4893	7.10606	-435.042	-20.2413	1.37006	-9.1193	6.42755	2.83499	-49.2659	-3.90046	-0.64394
0.4900	10.4721	-322.126	70.4082	0.764685	-9.43741	6.42755	2.52996	-70.9443	-4.19635	-0.96591
0.4907	5.87719	-240.069	102.76	-1.06737	-8.82239	4.6089	0.690805	-162.183	-6.02553	-0.32197
0.4913	3.74003	-403.342	123.512	0.143378	-7.59235	5.82964	2.52996	-202.77	-4.49225	0
0.4920	3.74003	-729.255	146.393	0.764685	-6.68042	6.42755	3.75008	-184.773	-2.07128	0
0.4927	5.87719	-970.937	103.675	-1.06737	-4.24153	3.38817	0.385774	-191.155	-2.66307	0
0.4933	9.24322	-1069.83	51.4865	-1.06737	-2.71458	3.0643	-0.529318	-27.2837	-2.07128	0
0.4940	11.0598	-1143.05	48.7409	0.143378	-3.0327	4.90786	1.9199	297.723	-1.15669	-0.32197
0.4947	15.0136	-1194.67	-6.81095	-1.68868	-2.09956	2.46639	-0.224287	524.164	-2.66307	0
0.4953	32.1109	-1075.93	-102.015	-1.99137	0.63623	0.946694	-2.05447	599.836	-2.36717	0
0.4960	48.2999	-644.393	-56.2542	0.764685	3.98704	2.16743	0.385774	554.385	1.29119	0
0.4967	36.3852	28.8251	52.4018	0.764685	6.42592	0.323869	0.995835	399.665	2.20578	-0.32197
0.4973	14.4258	536.947	21.5822	-0.159309	7.04095	-1.81865	-0.224287	190.006	1.90988	0
0.4980	14.4258	537.508	-65.0872	1.67275	6.74404	0.024913	1.9199	1.08054	3.73906	0
0.4987	16.563	275.347	-116.063	1.06737	7.65597	-0.896868	1.9199	-77.6301	3.44316	0
0.4993	13.197	114.529	-197.837	-2.59674	9.18292	-4.55908	-1.74944	-37.954	0.995289	-0.32197
0.5000	7.10606	74.2721	-215.843	-1.38599	8.27099	-2.1176	-0.529318	56.0193	1.90988	0
0.5007	-14.8533	125.26	-93.4803	0.764685	5.83211	0.024913	0.995835	171.367	2.20578	0
0.5013	-31.63	341.904	-41.9086	-0.461997	4.60206	-1.49478	-1.13938	205.573	-0.537994	0
0.5020	-41.7281	590.6	-107.209	1.06737	3.39323	0.024913	0.0807434	152.762	-0.242097	0
0.5027	-63.0997	580.571	-63.2567	1.97544	2.16318	1.54461	1.30087	161.001	0.0806991	0
0.5033	-73.4649	420.665	100.611	0.764685	1.25125	1.24565	-0.529318	125.309	-2.07128	-0.32197
0.5040	-58.1842	301.016	197.965	1.97544	1.54816	2.76534	0.385774	-75.8067	-1.74848	-0.32197
0.5047	-46.323	179.543	190.941	1.67275	2.46009	1.24565	0.0807434	-225.968	-0.833891	-0.32197
0.5053	-37.1332	59.614	183.002	-1.38599	2.46009	-3.33834	-4.79975	-270.507	-2.66307	-0.32197
0.5060	7.10606	-16.9725	194.602	-1.06737	2.16318	-3.03939	-4.79975	-384.943	-2.07128	-0.32197
0.5067	65.3971	37.3114	118.617	1.37006	2.46009	-0.597912	0.0807434	-491.781	0.995289	0
0.5073	72.7169	185.084	4.78895	0.764685	3.39323	-1.81865	1.9199	-363.602	0.995289	0
0.5080	28.1571	268.333	-2.53282	0.446066	2.7782	-1.19582	4.36014	-98.0929	0.995289	-0.32197
0.5087	-15.4944	310.203	18.2193	0.764685	0.933137	0.024913	5.58027	27.3512	0.995289	-0.32197
0.5093	-24.3102	363.576	-56.8502	-0.159309	0.0212077	-3.03939	0.995835	67.6351	-1.45258	-0.32197
0.5100	-20.3565	300.104	-188.387	-0.159309	-0.890722	-3.03939	-1.44441	162.52	-2.36717	0
0.5107	-35.6372	98.9593	-220.441	1.06737	-2.41767	0.323869	0.690805	182.071	-1.74848	-0.32197
0.5113	-43.8652	-67.3288	-90.4154	1.97544	-2.71458	2.16743	1.6059	33.1253	-2.07128	-0.32197
0.5120	-22.4936	-210.753	30.4152	2.58081	-3.0327	2.46639	1.9199	-102.348	-2.98587	-0.32197
0.5127	-7.53349	-345.341	49.0389	1.97544	-3.3296	1.84356	1.30087	-195.443	-3.90046	0
0.5133	-20.0359	-327.316	46.9104	1.37006	-3.3296	0.622825	0.0807434	-320.853	-4.81505	0
0.5140	-31.63	-199.812	52.0825	1.67275	-3.94463	0.946694	0.0807434	-281.819	-4.81505	0
0.5147	-23.4019	-129.608	55.1474	3.20212	-4.24153	1.84356	1.9199	-153.639	-3.90046	0
0.5153	-15.4944	13.5359	72.2387	3.80749	-1.50574	1.24565	3.14002	-179.572	-1.74848	0
0.5160	-26.768	434.972	82.3061	2.89943	3.98704	-2.1176	1.9199	-205.809	0.0806991	0.32197
0.5167	-39.0032	800.862	48.7409	2.27812	8.27099	-4.55908	0.385774	-113.963	1.29119	0
0.5173	-30.4546	683.107	9.06708	1.67275	8.27099	-3.93625	0.995835	-22.0836	1.61398	-0.32197
0.5180	-11.2201	342.816	-19.922	0.764685	6.74404	-3.03939	0.690805	-11.1093	0.376596	0
0.5187	1.60287	133.185	-41.9086	0.764685	4.30516	-2.41656	0.0807434	-22.0836	-1.15669	0
0.5193	14.7464	-65.7859	3.25649	2.27812	0.339323	0.946694	2.22493	16.951	-1.74848	-0.64394
0.5200	14.1053	-267.492	60.6388	4.73149	-3.0327	3.98608	4.66517	85.9368	-2.36717	-0.32197
0.5207	-16.9904	-328.579	91.4583	4.41287	-4.55965	2.46639	3.75008	149.419	-3.57766	0
0.5213	-42.6364	-372.833	182.087	3.80749	-2.71458	0.024913	1.9199	145.434	-2.36717	-0.32197
0.5220	-36.2249	-556.865	292.871	3.50481	0.933137	-1.19582	1.9199	7.49626	0.376596	-0.32197
0.5227	-17.311	-536.667	302.342	1.67275	2.46009	-2.71552	1.30087	-245.182	0.995289	0
0.5233	7.69378	9.53825	167.443	0.764685	1.25125	-1.81865	1.30087	-391.662	1.61398	0
0.5240	56.8485	417.93	-40.6742	1.97544	-1.18763	0.622825	2.83499	-251.901	2.82447	0
0.5247	119.734	76.3761	-192.346	1.06737	-2.09956	0.323869	3.14002	-11.4132	0.995289	0
0.5253	158.791	-497.953	-224.698	-1.68868	-3.62651	0.323869	1.30087	176.567	-2.36717	0
0.5260	167.34	-888.53	-219.526	-1.99137	-6.38351	2.46639	1.30087	316.025	-3.90046	0
0.5267	146.556	-1241.37	-234.169	-1.38599	-8.82239	3.38817	0.690805	366.101	-5.40684	-0.32197
0.5273	62.6188	-1401.28	-173.424	0.446066	-10.9644	5.50577	0.690805	395.073	-6.64422	-0.32197
0.5280	-45.0941	-1364.6	-56.5522	4.73149	-11.8763	9.16798	4.66517	411.247	-4.81505	-0.32197
0.5287	-86.6085	-1365.86	-4.06529	4.11018	-10.3493	6.72651	3.14002	368.532	-5.11094	-0.32197
0.5293	-90.5622	-1082.38	27.9888	1.67275	-6.38351	1.54461	-1.13938	356.309	-5.40684	0
0.5300	-117.384	-128.977	137.241	4.11018	1.25125	-0.597912	0.690805	302.011	-0.537994	0
0.5307	-161.035	1331.29	240.384	4.73149	9.47983	-5.77981	0.690805	33.7332	2.52857	0
0.5313	-179.949	2298.09	168.358	3.80749	14.3788	-8.52024	-1.44441	-287.289	3.12036	0
0.5320	-118.345	2077.44	-33.0544	6.86623	13.7638	-3.03939	2.22493	-382.512	5.86413	0
0.5327	-25.8597	1553.12	-206.095	5.63955	10.7099	-1.49478	2.22493	-316.903	5.56824	0
0.5333	12.2887	1335.85	-279.632	2.27812	8.5679	-2.71552	-2.3595	-184.469	2.20578	-0.32197
0.5340	10.4721	1186.04	-240.576	4.41287	5.83211	2.46639	0.995835	-16.9172	2.52857	-0.32197
0.5347	3.74003	1070.95	-139.859	5.03418	3.39323	3.98608	2.22493	-21.1719	1.29119	0
0.5353	-1.76316	973.322	-38.8437	2.27812	1.25125	2.16743	-2.05447	-209.186	-2.07128	0
0.5360	-1.76316	850.657	25.8391	4.11018	-2.09956	7.34933	0.995835	-312.918	-1.15669	0
0.5367	2.24402	622.371	42.3343	4.41287	-4.55965	9.79081	3.75008	-224.111	-0.242097	0
0.5373	10.1515	271.139	19.1345	1.06737	-4.85656	6.1286	0.690805	-100.22	-2.07128	0
0.5380	32.1109	-19.1466	-17.7936	1.97544	-6.38351	7.34933	2.52996	-41.3307	-1.45258	0
0.5387	59.894	-224.499	-44.9523	2.27812	-7.59235	8.57007	4.36014	22.455	-1.15669	0
0.5393	70.2592	-426.205	-55.9349	-1.68868	-7.91046	4.90786	1.30087	93.5681	-4.19635	0
0.5400	49.2081	-527.549	-22.3697	0.446066	-11.5794	8.57007	4.9702	93.872	-4.19635	0
0.5407	11.701	-560.162	31.9476	4.11018	-14.9302	12.5312	9.24063	87.4563	-3.90046	0
0.5413	-4.48804	-569.349	54.2322	1.67275	-14.6121	8.57007	4.9702	128.044	-6.32143	-0.32197
0.5420	-1.44258	-435.954	79.8584	0.446066	-12.4913	6.42755	2.52996	88.0641	-4.49225	-0.32197
0.5427	2.83174	-354.809	135.091	-1.38599	-7.91046	4.28504	1.6059	-45.5853	-1.45258	-0.32197
0.5433	10.1515	-454.259	172.934	-5.95817	-1.80265	-0.597912	-2.96956	-112.444	0.376596	0
0.5440	26.0199	-528.18	140.902	-4.12611	0.63623	0.946694	-1.74944	-109.675	4.03495	-0.32197
0.5447	39.1635	-561.424	31.9476	0.143378	-0.890722	3.68712	2.83499	-121.595	6.48283	-0.32197
0.5453	25.1116	-426.205	-82.7956	-2.29406	-1.80265	-0.597912	0.690805	-62.3675	2.82447	-0.32197
0.5460	0.374003	108.147	-155.737	-3.52074	-0.2757	-2.41656	-0.529318	63.9545	1.29119	0
0.5467	-7.26635	706.321	-205.776	-0.764685	1.54816	-2.41656	1.9199	112.782	3.44316	-0.32197
0.5473	-13.6244	1021.22	-225.315	-1.38599	3.69013	-6.7016	0.0807434	90.4953	2.82447	0
0.5480	-34.7289	1138.7	-188.685	-0.159309	6.42592	-6.37773	0.0807434	88.9758	4.35775	0
0.5487	-73.7855	1038.9	-118.511	2.89943	7.95288	-3.03939	3.75008	190.31	7.10152	0
0.5493	-111.934	804.86	-10.4718	-0.461997	6.42592	-6.37773	-0.224287	329.768	2.52857	0
0.5500	-107.927	699.588	115.254	-2.59674	1.54816	-5.48086	-3.88465	260.478	-1.74848	-0.32197
0.5507	-68.87	677.636	176.297	1.37006	-4.55965	1.54461	-0.224287	-37.6501	-0.833891	-0.32197
0.5513	-29.8134	575.661	175.382	1.06737	-8.20737	2.46639	-0.834348	-345.571	-2.98587	0
0.5520	-16.7233	463.376	139.369	0.764685	-10.9644	3.68712	-2.05447	-456.968	-6.02553	-0.32197
0.5527	-24.6308	329.701	93.906	3.50481	-15.5452	10.3887	1.9199	-365.122	-6.64422	-0.32197
0.5533	-2.67145	-10.5903	57.2759	1.37006	-21.038	11.3105	0.995835	-275.707	-10.3026	0
0.5540	34.8892	-542.768	39.5887	0.143378	-25.0038	11.9333	-0.224287	-218.033	-13.665	0
0.5547	39.7512	-1006.36	59.7235	3.20212	-26.8277	17.4142	4.66517	-99.0046	-12.1318	0
0.5553	34.248	-1309.4	60.6388	1.67275	-27.7396	16.4924	4.05511	27.3512	-13.0464	-0.32197
0.5560	50.7576	-1731.47	36.843	-0.159309	-29.5847	14.9727	1.6059	85.329	-15.1714	0
0.5567	57.7568	-1973.44	22.7954	3.50481	-31.4086	18.336	5.58027	110.046	-13.665	0
0.5573	27.8365	-1456.2	-12.9195	5.33686	-33.2324	17.7131	6.49536	165.897	-13.3422	-0.32197
0.5580	32.1109	-914.199	-95.928	4.11018	-34.7594	14.9727	3.14002	215.332	-15.4942	-0.32197
0.5587	84.311	-1066.18	-182.278	3.50481	-31.4086	14.0509	2.22493	233.633	-13.9609	-0.32197
0.5593	110.278	-1152.51	-254.602	1.67275	-19.1929	7.34933	-1.13938	274.525	-9.0921	-0.32197
0.5600	99.2712	-669.15	-355.319	1.37006	-5.47158	-1.49478	-5.40981	323.048	-4.49225	0
0.5607	55.2991	-173.863	-414.83	5.63955	2.16318	-2.1176	-2.3595	363.028	0.376596	0
0.5613	14.4258	-161.94	-392.247	6.24493	5.21709	-2.1176	0.385774	419.486	3.44316	0
0.5620	2.83174	-425.294	-316.858	2.58081	7.35906	-5.77981	-2.05447	379.506	2.52857	0
0.5627	-32.2711	-117.966	-174.658	2.89943	10.413	-7.00055	-2.3595	132.333	3.73906	0
0.5633	-95.4243	971.779	-7.42819	2.58081	14.9726	-9.74098	-2.3595	-179.572	5.86413	0
0.5640	-141.801	1795.43	161.654	0.446066	17.1146	-13.1042	-4.79975	-308.967	6.77872	0
0.5647	-139.984	1807.36	294.105	1.67275	16.2027	-10.9617	-2.96956	-294.312	8.6079	0
0.5653	-94.516	1495.75	313.623	2.58081	15.2907	-9.14307	-0.224287	-349.555	9.52249	0
0.5660	-37.7743	1233.66	286.762	-1.38599	13.1488	-10.6628	-3.57962	-410.91	6.18693	-0.32197
0.5667	3.41946	1101.18	276.695	-2.59674	9.79794	-9.44203	-4.49472	-390.751	4.35775	-0.32197
0.5673	19.6085	1026.69	212.31	-0.159309	7.35906	-6.7016	-2.3595	-330.95	4.03495	0
0.5680	26.6077	854.585	103.058	-0.461997	4.60206	-6.7016	-3.27459	-200.305	0.995289	-0.32197
0.5687	35.1563	656.877	20.3477	-0.159309	1.25125	-5.15699	-3.27459	-37.0423	0.376596	-0.32197
0.5693	27.2488	582.114	-30.926	2.89943	-0.593815	-2.1176	0.0807434	56.3232	1.90988	0
0.5700	-1.12201	526.848	-39.461	2.27812	0.0212077	-1.81865	-0.529318	109.742	0.995289	0
0.5707	-20.0359	401.097	-6.49169	1.37006	0.339323	-2.41656	-2.05447	113.997	-0.242097	-0.32197
0.5713	-22.4936	274.154	30.1172	2.27812	0.0212077	-1.81865	-0.834348	-15.3977	-0.537994	-0.32197
0.5720	-23.7225	137.744	17.0061	1.37006	0.0212077	-3.33834	-1.74944	-128.314	-1.45258	-0.32197
0.5727	-15.1738	4.41845	-54.4238	0.764685	-0.593815	-3.93625	-2.66453	-135	-1.15669	0
0.5733	4.38118	-75.254	-69.6633	2.58081	-2.09956	-1.81865	0.385774	-157.59	-0.242097	0
0.5740	11.0598	-155.838	-65.0872	3.20212	-3.0327	-0.274043	1.6059	-222.288	-0.242097	-0.32197
0.5747	-4.16747	-255.639	-122.767	1.37006	-4.85656	-0.896868	0.0807434	-294.009	-1.74848	0
0.5753	-28.5845	-278.783	-113.934	0.764685	-6.99853	-1.19582	-0.834348	-256.764	-3.57766	0
0.5760	-38.3621	-161.028	-59.9151	-0.159309	-7.29544	-2.1176	-2.05447	-30.9643	-5.11094	0
0.5767	-20.9976	-75.6046	-65.7044	0.764685	-7.29544	-1.19582	-1.74944	195.173	-4.49225	0
0.5773	-9.67066	-96.0137	-64.7892	3.20212	-7.91046	0.622825	1.30087	212.597	-2.66307	0
0.5780	-29.2257	-29.4564	7.23664	4.11018	-6.99853	0.946694	2.52996	67.6351	-2.36717	-0.32197
0.5787	-45.0941	41.5896	105.187	1.97544	-6.38351	0.024913	1.6059	-41.9385	-3.57766	-0.64394
0.5793	-25.2719	29.3862	170.508	-0.764685	-6.68042	-1.19582	0.0807434	15.4315	-4.19635	-0.32197
0.5800	7.69378	0.420805	173.552	-2.29406	-5.76849	-0.896868	-0.224287	103.023	-3.90046	-0.32197
0.5807	26.0199	-130.8	145.478	-1.38599	-5.47158	0.323869	0.385774	111.262	-2.98587	-0.32197
0.5813	29.9737	-297.158	114.658	-0.461997	-6.99853	1.54461	1.6059	168.936	-2.07128	-0.32197
0.5820	36.3852	-330.122	59.7235	0.446066	-8.20737	3.0643	3.14002	188.791	-1.15669	0
0.5827	45.575	-228.778	-12.3023	-1.06737	-6.99853	1.84356	2.22493	86.2407	-1.15669	-0.32197
0.5833	45.2544	-92.9979	-54.1045	-3.21805	-7.29544	0.622825	0.995835	11.4808	-1.45258	-0.32197
0.5840	50.1164	-23.0741	-57.4674	-3.21805	-8.52548	1.84356	2.22493	-75.5028	-0.242097	0
0.5847	57.7568	-14.2372	-37.9285	-2.59674	-8.52548	3.0643	2.52996	-148.743	0.376596	0
0.5853	37.614	-1.12215	16.0909	-3.21805	-9.73432	3.98608	2.22493	-155.159	-0.242097	-0.32197
0.5860	-6.30463	73.3603	42.0151	-1.68868	-10.0524	5.50577	4.05511	-193.923	0.0806991	0
0.5867	-59.4131	141.11	5.70417	-1.68868	-8.82239	4.28504	4.36014	-185.988	-0.833891	-0.64394
0.5873	-78.6475	103.237	-50.4436	-3.21805	-8.82239	1.24565	1.30087	-85.2615	-3.28176	-0.64394
0.5880	-26.1802	29.3862	-140.774	-1.06737	-8.20737	1.84356	0.690805	0.776639	-2.98587	0
0.5887	29.9737	3.78725	-180.15	0.446066	-6.68042	1.84356	0.995835	41.3645	-2.66307	0
0.5893	56.5279	-18.796	-127.961	-1.06737	-5.47158	-0.896868	-0.529318	70.3703	-3.90046	0
0.5900	80.6244	-70.9758	-107.826	0.143378	-4.85656	-0.274043	0.0807434	60.6116	-2.36717	-0.32197
0.5907	74.8541	-103.939	-95.3108	2.27812	-3.94463	2.16743	1.6059	-18.4367	-0.537994	-0.32197
0.5913	35.4769	-110.041	-23.9022	1.06737	-3.3296	1.24565	0.385774	-65.4403	-1.45258	0
0.5920	13.5175	-112.776	63.0864	-0.461997	-2.71458	-1.19582	-1.44441	-13.5405	-2.98587	0
0.5927	28.7448	-120.14	82.3061	-0.764685	-2.71458	-1.49478	-1.44441	80.1289	-3.28176	0
0.5933	46.1627	-124.699	28.904	-0.159309	-3.62651	0.323869	-0.224287	138.411	-2.98587	-0.32197
0.5940	38.2552	-107.025	-12.3023	1.06737	-4.24153	2.76534	0.995835	133.548	-2.66307	-0.32197
0.5947	9.83094	-92.3667	-42.5046	1.67275	-5.76849	3.98608	2.52996	77.6977	-1.45258	-0.32197
0.5953	-25.2719	-101.835	-66.9176	0.143378	-6.99853	2.46639	0.995835	-45.2814	-2.66307	-0.32197
0.5960	-33.7672	-107.305	-63.2567	-1.99137	-6.0866	0.622825	-2.66453	-169.206	-4.49225	-0.32197
0.5967	-0.854865	-109.479	-73.6434	-0.764685	-6.38351	3.0643	-1.74944	-168.902	-4.49225	0
0.5973	36.118	-130.8	-101.1	0.446066	-7.59235	4.28504	-0.834348	-97.789	-4.49225	-0.64394
0.5980	37.2935	-147.562	-87.3717	0.446066	-7.59235	4.90786	-2.3595	-84.0459	-3.90046	-0.32197
0.5987	19.0207	-145.458	-30.6067	1.37006	-7.91046	6.1286	-2.3595	-79.4873	-2.36717	0
0.5993	17.4713	-179.964	28.904	-0.764685	-6.99853	2.76534	-2.05447	-17.2211	-4.19635	0
0.6000	28.7448	-253.184	57.2759	-3.21805	-4.55965	0.024913	-1.44441	34.6786	-5.11094	-0.32197
0.6007	43.705	-315.744	10.5783	-1.68868	-3.0327	1.54461	1.6059	36.502	-1.74848	-0.32197
0.6013	52.2536	-319.391	-51.6781	-0.764685	-1.18763	1.84356	3.44505	22.455	0.0806991	0
0.6020	29.0654	-251.08	-40.6742	-1.38599	-0.2757	0.622825	4.05511	18.8082	-0.833891	0
0.6027	-9.67066	-215.663	3.57575	-1.68868	0.339323	0.946694	6.49536	33.4292	-0.833891	-0.32197
0.6033	-16.0821	-255.639	-0.4044	-1.99137	1.25125	0.622825	6.49536	64.2584	-0.537994	-0.32197
0.6040	-3.25917	-179.333	-19.0068	-2.59674	1.54816	0.024913	4.9702	110.958	-1.15669	-0.32197
0.6047	-4.16747	46.499	16.3889	-1.38599	1.25125	0.622825	5.27523	145.434	-1.15669	-0.32197
0.6053	-1.12201	124.909	48.1236	-0.461997	1.54816	1.84356	5.27523	134.156	-0.833891	0
0.6060	14.1053	9.88892	26.1583	-0.461997	1.86627	1.54461	4.9702	105.454	-0.242097	-0.32197
0.6067	20.5168	-74.3422	-11.685	0.764685	0.339323	2.16743	4.66517	85.6329	0.995289	-0.32197
0.6073	13.197	-78.3399	-14.1327	-0.764685	-1.18763	1.54461	3.44505	37.7176	0.672492	0
0.6080	6.51834	-50.2161	23.0934	-2.89943	0.933137	0.323869	0.385774	-34.915	-0.537994	0
0.6087	4.9689	-16.3413	40.1846	-2.29406	5.21709	0.323869	-6.01987	-99.0046	-0.537994	0
0.6093	4.9689	-6.59261	10.2803	-3.21805	6.42592	-0.274043	-11.8154	-133.481	-1.15669	0
0.6100	3.74003	-10.8708	-21.4545	-3.21805	4.30516	0.024913	-10.9004	-74.5911	-2.07128	0
0.6107	1.60287	-7.50436	-20.8373	-0.159309	2.46009	3.0643	-6.3249	18.8082	0.0806991	-0.32197
0.6113	-4.48804	-3.85738	-8.34342	0.446066	4.60206	2.16743	-5.10478	6.28065	0.672492	-0.32197
0.6120	-16.4027	-1.40268	-2.23484	-3.21805	4.89897	-2.1176	-9.07017	-57.809	-2.66307	-0.32197
0.6127	-19.7687	2.24429	0.510821	-4.4288	-0.890722	-1.19582	-10.5953	-57.2012	-2.98587	-0.32197
0.6133	-11.2201	-1.40268	2.34126	-2.59674	-4.24153	1.84356	-8.46011	-24.8525	-1.15669	-0.32197
0.6140	-6.30463	-8.76677	4.49097	-1.99137	-0.890722	0.946694	-8.15508	-15.7016	-1.74848	0
0.6147	-5.71691	-11.502	9.9823	-1.38599	1.86627	0.323869	-7.54502	-16.0055	-1.74848	0
0.6153	-3.57975	-16.9725	12.1107	-0.461997	-1.50574	0.946694	-6.93496	-33.3955	-1.15669	-0.32197
0.6160	-3.57975	-33.454	7.23664	-2.29406	-4.55965	-0.274043	-9.3752	-58.7207	-2.98587	0
0.6167	-4.48804	-43.5533	6.00215	-1.38599	-1.18763	1.24565	-8.15508	-52.9128	-3.28176	0
0.6173	-4.16747	-37.7322	13.9412	1.06737	1.86627	3.98608	-3.88465	-36.1306	-1.45258	-0.32197
0.6180	-7.26635	-30.9993	19.1345	1.06737	2.16318	2.16743	-4.49472	-48.0503	-1.45258	0
0.6187	-10.3118	-29.807	13.0259	0.764685	2.16318	-0.597912	-6.93496	-82.5263	-2.66307	0
0.6193	-11.4872	-26.4406	2.95851	-0.159309	1.25125	-2.1176	-7.23999	-107.548	-2.98587	0
0.6200	-16.4027	-23.0741	-4.06529	-2.29406	0.339323	-3.6373	-6.93496	-104.205	-3.57766	0
0.6207	-15.7616	-23.0741	-6.49169	-1.38599	0.339323	-1.81865	-4.49472	-77.934	-2.36717	0
0.6213	-9.35008	-23.0741	-7.10893	1.37006	0.0212077	0.946694	-0.529318	-26.9798	-0.537994	0
0.6220	-6.03748	-24.6171	-11.0891	1.06737	-0.2757	-0.896868	-1.13938	23.3667	-1.74848	-0.32197
0.6227	-2.35088	-29.1758	-17.1764	0.764685	-0.2757	-3.03939	-2.3595	39.2372	-2.98587	-0.32197
0.6233	1.2823	-28.8953	-18.4109	2.27812	-0.2757	-1.81865	0.385774	38.3255	-2.07128	0
0.6240	-0.53429	-27.6329	-4.66125	1.37006	0.0212077	-1.49478	1.9199	27.6551	-2.36717	0
0.6247	-3.25917	-29.807	17.6021	0.143378	0.339323	-1.19582	2.83499	10.569	-1.74848	-0.32197
0.6253	-3.90032	-30.7188	17.6021	-0.461997	-0.593815	-0.896868	2.83499	3.24162	-0.242097	0
0.6260	-5.39633	-31.911	1.42604	-1.68868	-1.50574	-2.41656	0.385774	3.84943	-1.74848	-0.32197
0.6267	-3.57975	-33.7345	-4.06529	-0.764685	-0.2757	-1.49478	0.0807434	14.2159	-2.07128	-0.32197
0.6273	2.83174	-35.9087	-8.34342	0.764685	0.0212077	0.622825	1.6059	24.2784	-1.15669	-0.32197
0.6280	5.87719	-39.2751	-12.9195	0.143378	0.339323	0.946694	0.690805	17.8627	-1.74848	-0.32197
0.6287	4.06061	-36.8204	-8.93937	-1.06737	0.933137	0.622825	-0.529318	7.19235	-2.36717	-0.32197
0.6293	1.2823	-28.2641	-5.27849	-1.68868	0.339323	0.946694	0.690805	10.2651	-1.15669	-0.32197
0.6300	-2.67145	-21.5312	-4.66125	-2.59674	-0.2757	2.16743	1.9199	27.0473	0.376596	-0.32197
0.6307	-5.39633	-19.7077	-2.23484	-2.59674	-0.593815	3.0643	1.6059	43.8295	0.995289	-0.32197
0.6313	-4.16747	-16.0607	-1.00036	-1.06737	-0.2757	3.0643	0.690805	44.7412	1.29119	0
0.6320	-4.16747	-14.2372	-0.702379	-1.06737	0.0212077	0.946694	-1.44441	30.0863	0.376596	0
0.6327	-5.39633	-18.1648	0.510821	-1.99137	0.339323	-0.896868	-2.96956	11.7847	-1.15669	-0.32197
0.6333	-1.12201	-21.8819	1.42604	-0.159309	1.25125	0.946694	0.0807434	-1.35068	0.0806991	0
0.6340	1.92345	-23.7053	1.74531	1.67275	1.86627	1.84356	3.44505	-3.17409	1.29119	0
0.6347	0.374003	-24.8976	2.34126	1.97544	0.933137	0.622825	4.66517	6.58455	0.995289	-0.32197
0.6353	1.2823	-25.8094	2.34126	2.58081	0.339323	0.024913	5.27523	18.5043	2.20578	-0.32197
0.6360	1.92345	-28.8953	-0.4044	1.67275	0.933137	-2.41656	1.9199	18.5043	1.61398	0
0.6367	0.374003	-32.5423	-1.91558	0.764685	1.86627	-4.85803	-3.27459	7.49626	-0.833891	0
0.6373	2.24402	-29.1758	0.212842	3.50481	1.86627	-2.41656	-2.96956	-8.07029	-0.242097	0
0.6380	1.92345	-16.0607	2.95851	5.03418	2.16318	-0.896868	-0.529318	-34.0033	0.376596	0
0.6387	-2.99203	-2.6651	3.57575	2.89943	3.07511	-3.33834	-2.96956	-49.5698	-1.74848	-0.32197
0.6393	-4.16747	3.78725	3.87373	2.58081	2.16318	-3.93625	-3.57962	-26.6759	-2.66307	-0.64394
0.6400	-3.90032	4.97953	3.25649	3.80749	1.25125	-3.33834	-1.74944	4.76114	-2.36717	-0.32197
0.6407	-4.16747	2.52483	2.04329	3.80749	2.16318	-5.15699	-3.27459	14.2159	-4.19635	0.32197
0.6413	-2.35088	0.701342	1.42604	4.41287	2.46009	-5.77981	-4.79975	20.9355	-5.11094	0
0.6420	-0.53429	-0.210403	0.510821	3.20212	3.69013	-5.48086	-4.79975	33.4292	-5.40684	-0.32197
0.6427	-1.12201	-0.210403	0.830085	2.27812	4.60206	-5.48086	-4.18968	39.2372	-5.11094	0
0.6433	-1.12201	1.96376	3.25649	4.73149	3.39323	-5.48086	-1.74944	40.4528	-3.28176	0.32197
0.6440	-0.53429	3.78725	4.78895	5.94224	3.07511	-6.37773	-0.834348	38.0215	-2.66307	0
0.6447	0.374003	4.41845	6.61939	6.54762	3.39323	-5.48086	0.385774	33.4292	-2.66307	0
0.6453	-0.53429	3.78725	7.23664	7.16892	3.07511	-6.07877	1.6059	28.8707	-3.90046	-0.32197
0.6460	-2.0303	1.61309	4.78895	5.63955	4.89897	-10.0399	-0.529318	22.7589	-6.32143	0
0.6467	-0.213716	1.33255	4.78895	6.86623	6.74404	-9.44203	-0.834348	20.9355	-6.32143	0
0.6473	2.24402	4.06778	8.15186	10.833	6.74404	-5.15699	0.690805	24.8862	-3.57766	-0.32197
0.6480	0.694578	3.43657	7.53462	9.90904	5.83211	-6.7016	-2.96956	24.5823	-3.90046	0
0.6487	0.374003	1.05201	5.40619	7.7743	5.21709	-8.52024	-3.88465	24.8862	-5.72964	0
0.6493	1.92345	1.96376	7.8326	9.30367	4.60206	-4.55908	2.52996	32.5175	-3.28176	-0.32197
0.6500	0.694578	1.61309	6.61939	7.16892	4.60206	-4.55908	2.22493	29.1746	-3.28176	-0.32197
0.6507	0.694578	-0.771476	3.87373	4.73149	4.30516	-5.15699	1.6059	13.3042	-4.81505	-0.32197
0.6513	3.74003	1.05201	6.61939	6.54762	3.98704	-1.49478	9.24063	6.58455	-2.36717	-0.32197
0.6520	1.2823	4.41845	6.91737	5.63955	4.30516	-3.6373	8.63057	9.31967	-3.57766	0
0.6527	-2.67145	4.97953	5.40619	4.41287	4.89897	-7.59846	2.52996	6.88845	-7.26292	0
0.6533	1.60287	5.3302	9.66304	8.69829	3.98704	-3.33834	5.58027	3.84943	-3.90046	0
0.6540	1.2823	7.15369	9.9823	6.86623	3.07511	-3.33834	5.8853	3.24162	-2.66307	0
0.6547	-5.39633	11.7124	6.32142	2.27812	3.69013	-6.37773	-0.224287	5.97674	-5.11094	0
0.6553	-3.25917	16.2711	8.15186	4.41287	4.60206	-2.71552	1.9199	10.569	-2.66307	-0.32197
0.6560	-0.213716	15.3594	8.44984	4.11018	4.89897	-2.41656	3.44505	13.6081	-2.36717	-0.32197
0.6567	-2.99203	11.9929	4.49097	-0.461997	5.21709	-6.7016	-3.57962	18.2004	-6.32143	-0.32197
0.6573	-0.213716	12.6242	5.70417	2.89943	4.89897	-3.93625	-4.18968	24.2784	-5.40684	0
0.6580	3.74003	13.5359	8.44984	6.54762	5.51399	-2.1176	-3.57962	22.455	-3.90046	0
0.6587	0.374003	11.7124	5.70417	3.20212	6.42592	-7.00055	-12.1205	12.6964	-7.85471	0
0.6593	0.694578	12.9047	5.08693	3.80749	6.42592	-7.00055	-11.5104	10.8729	-8.17751	-0.32197
0.6600	3.74003	14.1671	6.61939	6.24493	6.42592	-4.26012	-6.93496	13.3042	-5.72964	-0.32197
0.6607	1.60287	11.7124	5.08693	3.50481	6.74404	-7.00055	-11.8154	9.62357	-6.94012	-0.32197
0.6613	0.374003	11.4319	5.40619	3.20212	6.42592	-7.00055	-11.8154	8.71186	-6.32143	-0.32197
0.6620	1.92345	14.1671	9.06708	6.24493	6.12902	-3.03939	-8.15508	13.0003	-2.98587	-0.32197
0.6627	1.60287	14.7282	9.36506	7.16892	6.12902	-3.03939	-13.3406	13.6081	-2.98587	0
0.6633	0.106858	13.5359	6.91737	5.33686	5.51399	-5.77981	-22.5005	10.569	-5.11094	0
0.6640	-1.12201	12.6242	6.32142	3.80749	4.60206	-5.77981	-29.8212	9.01577	-5.40684	0
0.6647	-1.44258	12.6242	6.61939	3.50481	4.60206	-5.48086	-34.7017	9.31967	-5.40684	0
0.6653	-2.99203	12.6242	6.32142	2.27812	4.60206	-6.7016	-35.9218	9.62357	-6.64422	-0.32197
0.6660	-6.03748	12.6242	10.8975	1.67275	4.60206	-7.59846	-36.8459	11.1768	-6.94012	-0.32197
0.6667	-5.71691	14.7282	20.667	4.41287	4.30516	-4.85803	-36.8459	15.7354	-4.81505	-0.32197
0.6673	-6.30463	14.4476	20.667	4.11018	3.98704	-5.77981	-37.1509	12.6964	-4.49225	0
0.6680	-9.35008	13.5359	13.0259	1.97544	4.30516	-10.0399	-34.0917	7.19235	-6.32143	0
0.6687	-10.3118	16.2711	10.2803	2.58081	4.30516	-9.14307	-26.4659	13.0003	-4.49225	-0.32197
0.6693	-11.2201	17.1829	8.44984	0.446066	3.69013	-8.22129	-28.2961	18.8082	-3.28176	-0.64394
0.6700	-13.6244	16.9023	7.8326	-2.29406	3.69013	-8.22129	-32.8715	17.8627	-2.98587	-0.64394
0.6707	-15.1738	17.8141	11.4935	-1.68868	3.69013	-6.07877	-22.8055	14.2159	-0.537994	0
0.6713	-14.8533	19.9181	9.66304	0.446066	4.89897	-3.33834	-5.10478	12.6964	3.12036	-0.32197
0.6720	-19.1276	22.7235	6.32142	-0.764685	3.07511	-3.33834	3.75008	15.4315	4.03495	-0.32197
0.6727	-23.1348	23.6352	18.2193	-2.29406	-8.82239	-3.03939	13.8161	17.8627	3.73906	0
0.6733	-19.4482	23.6352	26.4563	0.764685	-31.4086	0.622825	30.9068	21.5433	5.86413	0
0.6740	-18.2193	23.004	10.2803	1.06737	-66.5073	1.24565	25.4162	22.455	7.39742	-0.32197
0.6747	-21.5853	20.2688	-12.6003	-2.29406	-98.8489	-1.81865	10.4608	20.3277	5.56824	0
0.6753	-21.2648	18.4453	-18.4109	-1.99137	-113.8	-2.41656	12.2909	20.9355	4.94954	0
0.6760	-20.3565	18.7258	-6.19371	-0.159309	-118.996	-3.03939	9.85069	21.5433	5.27234	-0.32197
0.6767	-21.5853	19.0064	5.08693	-0.461997	-107.099	-4.85803	-2.3595	20.6316	4.94954	0
0.6773	-20.9976	19.6376	6.61939	0.143378	-66.1891	-4.26012	0.385774	20.6316	4.94954	0
0.6780	-19.7687	19.0064	6.00215	0.764685	-21.6318	-3.33834	16.5614	19.7199	4.94954	0
0.6787	-19.4482	18.0946	6.00215	-0.461997	12.8518	-3.6373	35.7873	17.5588	5.56824	0
0.6793	-18.2193	18.4453	5.40619	-1.06737	47.9293	-3.6373	58.6825	16.6471	5.86413	0
0.6800	-17.6316	18.0946	4.49097	-1.06737	76.0083	-2.41656	66.0032	15.4315	5.56824	-0.32197
0.6807	-15.4944	18.4453	6.00215	0.446066	91.5747	1.84356	56.5383	16.3432	7.39742	0
0.6813	-12.7161	19.6376	7.53462	1.97544	99.5064	4.6089	45.8622	17.2549	8.01611	0
0.6820	-14.8533	17.1829	4.49097	-0.461997	98.5945	-0.274043	18.6966	12.3925	3.44316	-0.32197
0.6827	-15.1738	14.1671	1.74531	-1.38599	87.312	-1.49478	-26.4659	7.49626	-0.242097	-0.32197
0.6833	-10.5789	15.9906	4.49097	2.58081	65.9346	6.1286	-49.6572	11.1768	2.20578	-0.32197
0.6840	-13.6244	15.0788	2.66053	0.143378	46.4236	4.6089	-48.132	9.01577	0.376596	-0.32197
0.6847	-18.8605	12.6242	-0.702379	-2.59674	41.5246	1.24565	-50.8773	4.15333	-2.98587	-0.32197
0.6853	-14.5861	15.3594	3.25649	3.20212	43.9635	7.05038	-50.8773	9.31967	1.61398	0
0.6860	-14.2656	15.7101	3.57575	1.37006	39.9977	5.50577	-52.4025	9.62357	2.20578	-0.32197
0.6867	-17.311	13.2554	-0.0851369	-3.52074	22.9043	0.622825	-54.8517	5.36894	-0.833891	0
0.6873	-13.3573	13.8164	1.42604	-2.29406	5.83211	3.38817	-46.9119	9.01577	1.61398	-0.32197
0.6880	-12.1284	15.0788	2.66053	-3.21805	5.21709	4.90786	-47.522	10.8729	2.20578	-0.64394
0.6887	-16.9904	13.8164	1.12806	-6.26086	9.79794	2.46639	-53.3175	8.40796	-2.07128	-0.64394
0.6893	-18.5399	14.1671	2.04329	-5.03418	6.42592	2.76534	-39.5912	10.569	-2.66307	0
0.6900	-16.4027	16.2711	5.08693	-1.38599	2.16318	6.42755	-12.4255	15.1276	-0.537994	0
0.6907	-17.311	15.7101	4.17171	-1.68868	6.42592	4.90786	-1.13938	13.912	-1.74848	-0.32197
0.6913	-19.4482	13.8164	2.34126	-2.59674	17.7296	1.54461	0.995835	12.6964	-3.28176	-0.32197
0.6920	-18.5399	12.6242	2.04329	-2.29406	27.8033	0.946694	7.71548	12.6964	-3.57766	-0.32197
0.6927	-18.2193	11.7124	0.510821	-2.59674	27.8033	0.622825	4.36014	9.92747	-4.81505	-0.32197
0.6933	-16.7233	11.7124	0.830085	-1.68868	21.9924	0.946694	-14.5607	9.01577	-4.49225	0
0.6940	-14.5861	11.9929	1.74531	-0.764685	14.0607	0.946694	-38.3711	10.2651	-3.28176	0.32197
0.6947	-11.2201	13.5359	3.57575	1.67275	-9.73432	1.24565	-48.4371	12.6964	-0.833891	0
0.6953	-7.53349	12.9047	4.17171	2.27812	-41.1641	1.54461	-61.2573	11.4808	-0.537994	-0.32197
0.6960	-6.94578	9.53825	1.12806	-0.764685	-53.9947	-0.597912	-92.3794	5.36894	-2.66307	-0.32197
0.6967	-4.80861	7.71476	-0.4044	-0.461997	-52.1497	-0.597912	-100.624	2.93772	-2.66307	-0.32197
0.6973	-0.854865	7.71476	-0.0851369	2.58081	-44.5361	0.946694	-79.2631	2.93772	-1.74848	0
0.6980	-0.53429	6.80301	-1.00036	2.27812	-31.7055	-1.19582	-67.968	1.38444	-2.07128	0
0.6987	-3.25917	4.69899	-3.44804	-0.764685	-19.808	-5.77981	-58.512	-2.87019	-3.28176	0
0.6993	-2.67145	3.15604	-5.27849	-1.99137	-9.73432	-6.7016	-20.3653	-6.24688	-3.90046	-0.32197
0.7000	-0.854865	2.24429	-5.27849	-1.38599	4.60206	-5.77981	25.4162	-6.55078	-2.98587	-0.64394
0.7007	-1.12201	2.24429	-4.66125	-0.461997	19.8716	-4.55908	47.9975	-4.9975	-1.45258	0
0.7013	1.01515	2.52483	-3.74602	1.67275	29.0121	-2.1176	71.7988	-2.26238	0.995289	0.32197
0.7020	2.51116	1.96376	-4.06529	2.58081	35.1199	-2.1176	109.336	-0.742872	1.61398	0
0.7027	1.60287	1.05201	-6.19371	1.97544	41.8427	-4.26012	135.586	-2.56629	-1.74848	0
0.7033	4.38118	1.33255	-6.19371	3.80749	47.6324	-3.03939	153.287	-1.65458	-2.66307	0
0.7040	8.33493	1.61309	-4.98051	5.94224	46.1055	-0.597912	163.963	0.776639	-2.07128	0
0.7047	9.24322	1.96376	-4.98051	6.54762	38.1738	2.16743	149.007	2.93772	-2.98587	0
0.7053	9.24322	2.52483	-4.36327	6.24493	36.6469	4.6089	119.41	4.45723	-3.57766	0
0.7060	8.6555	0.701342	-5.27849	4.11018	43.6666	2.76534	110.251	3.54553	-3.90046	0
0.7067	8.01436	-0.771476	-6.49169	1.37006	43.3697	0.323869	108.725	1.68835	-4.19635	0
0.7073	7.42664	0.420805	-4.06529	2.27812	29.6271	1.24565	73.629	3.84943	-3.28176	0
0.7080	3.74003	1.33255	-1.00036	3.20212	15.9058	1.84356	22.976	7.49626	-1.74848	-0.32197
0.7087	0.374003	1.33255	0.212842	2.27812	8.88601	0.323869	-6.3249	6.58455	-2.66307	-0.32197
0.7093	0.106858	2.24429	1.74531	3.20212	4.60206	0.946694	-9.07017	7.49626	-2.36717	-0.32197
0.7100	-3.57975	2.8755	2.66053	2.58081	3.39323	0.946694	5.58027	9.92747	-0.833891	0
0.7107	-6.94578	1.61309	1.12806	0.446066	4.30516	-0.597912	15.3412	9.01577	-1.15669	0
0.7113	-5.39633	1.61309	0.510821	1.37006	4.60206	1.24565	4.05511	9.31967	0.0806991	0
0.7120	-2.67145	2.24429	1.42604	4.11018	3.98704	4.90786	-38.9811	11.1768	3.12036	0.32197
0.7127	-5.12919	-0.490939	-1.91558	1.06737	3.69013	0.622825	-98.794	7.19235	0.0806991	0.32197
0.7133	-9.35008	-2.94564	-5.27849	-0.764685	2.7782	-3.33834	-129.916	3.84943	-3.28176	0
0.7140	-8.76236	0.420805	-1.6176	5.03418	2.16318	2.16743	-132.06	11.4808	0.376596	-0.32197
0.7147	-11.8078	1.05201	-1.31962	5.03418	2.46009	1.84356	-128.086	13.912	0.376596	-0.32197
0.7153	-18.8605	-2.03389	-5.27849	-0.461997	3.07511	-3.33834	-123.815	7.49626	-3.57766	0
0.7160	-17.6316	-2.03389	-4.98051	1.37006	1.86627	-0.274043	-104.895	8.10406	-2.36717	0
0.7167	-17.311	-1.12215	-3.74602	3.20212	0.339323	2.46639	-62.7825	11.7847	-0.242097	0
0.7173	-26.768	-2.31443	-5.27849	0.143378	-0.593815	-0.274043	-30.4313	9.62357	-1.15669	0
0.7180	-28.5845	-2.6651	-5.57647	-1.06737	-2.09956	-1.49478	-16.0859	9.62357	-1.15669	0
0.7187	-20.3565	-1.75335	-4.36327	1.37006	-3.62651	-0.274043	4.36014	13.0003	1.61398	0
0.7193	-17.8987	-2.94564	-5.89573	1.37006	-3.0327	-1.81865	24.1961	12.0886	1.29119	0
0.7200	-18.2193	-5.04966	-8.93937	-0.461997	-2.09956	-3.93625	30.2967	8.71186	-1.74848	0
0.7207	-13.6244	-4.48859	-8.34342	1.67275	-1.80265	-2.1176	37.6174	9.92747	-2.07128	0
0.7213	-8.76236	-4.13792	-8.34342	2.89943	-1.50574	-2.1176	69.6636	10.8729	-1.74848	0
0.7220	-5.12919	-5.40033	-10.1739	1.37006	-0.890722	-4.55908	107.505	9.31967	-2.66307	-0.32197
0.7227	-6.03748	-5.9614	-11.685	1.06737	-0.593815	-7.00055	104.455	9.01577	-3.57766	-0.32197
0.7233	-9.67066	-4.76912	-10.4718	2.58081	-0.890722	-7.00055	58.0635	10.569	-3.90046	0
0.7240	-7.85407	-2.94564	-6.19371	5.33686	-1.18763	-4.26012	7.10542	14.5198	-2.07128	0
0.7247	-3.25917	-2.03389	-4.36327	4.11018	-1.50574	-4.55908	-10.2903	14.5198	-2.98587	0
0.7253	3.74003	-0.210403	-3.74602	1.97544	-3.0327	-6.37773	-18.8401	11.4808	-5.40684	0
0.7260	9.24322	2.52483	-1.31962	3.20212	-4.85656	-5.77981	-37.456	12.3925	-5.40684	-0.32197
0.7267	8.6555	3.15604	0.830085	4.41287	-5.15346	-3.93625	-36.5409	14.5198	-3.90046	-0.32197
0.7273	4.06061	1.05201	-0.702379	3.20212	-5.47158	-3.33834	-28.2961	13.0003	-3.57766	-0.32197
0.7280	0.694578	-1.12215	-2.53282	1.06737	-6.0866	-3.03939	-17.925	9.62357	-5.11094	0
0.7287	12.6093	-2.31443	-1.91558	1.67275	-5.76849	-1.19582	18.0865	8.40796	-4.81505	0
0.7293	30.6148	-3.85738	-2.8308	1.67275	-5.47158	-1.49478	62.9529	3.84943	-4.49225	-0.64394
0.7300	35.7975	-5.68087	-4.66125	0.764685	-4.85656	-4.85803	96.5242	-4.6936	-5.72964	-0.64394
0.7307	36.118	-4.13792	-1.00036	5.03418	-4.24153	-4.26012	141.992	-4.0858	-4.49225	0
0.7313	34.8892	-2.03389	1.74531	9.90904	-4.85656	-0.274043	185.934	1.08054	-2.07128	0
0.7320	28.1571	-3.22617	-1.6176	8.37967	-4.55965	-1.19582	182.274	-2.26238	-3.90046	-0.32197
0.7327	23.2951	-4.13792	-3.74602	5.94224	-4.24153	-3.03939	149.923	-6.55078	-5.72964	-0.32197
0.7333	21.425	-2.31443	-2.53282	7.47161	-5.76849	0.622825	119.105	-2.87019	-3.90046	0
0.7340	21.1579	-2.94564	-5.27849	5.63955	-6.38351	0.024913	90.1096	-2.26238	-3.57766	0
0.7347	31.2026	-6.31208	-9.8546	1.97544	-6.0866	-3.03939	72.1038	-7.76639	-4.81505	0
0.7353	45.8421	-7.22382	-9.55662	2.58081	-6.68042	-0.896868	55.6232	-8.982	-3.28176	-0.32197
0.7360	42.7967	-6.31208	-8.34342	3.20212	-7.29544	0.622825	30.2967	-7.15859	-2.07128	-0.32197
0.7367	23.5622	-5.04966	-8.02415	1.67275	-7.59235	-0.274043	15.0362	-7.15859	-2.66307	0
0.7373	11.3804	-1.75335	-5.27849	3.20212	-8.20737	2.16743	14.7312	-3.47799	-1.45258	0
0.7380	6.78549	1.33255	-2.8308	4.73149	-9.1193	4.90786	4.66517	0.776639	-0.242097	0
0.7387	1.92345	1.05201	-3.44804	3.50481	-8.82239	4.6089	-17.001	0.168835	-2.36717	-0.32197
0.7393	4.06061	0.420805	-4.36327	1.97544	-8.82239	3.38817	-29.5162	-1.04677	-4.19635	-0.32197
0.7400	16.2424	1.05201	-3.44804	1.67275	-9.43741	3.38817	-42.9465	-0.43897	-3.90046	-0.32197
0.7407	31.5231	1.05201	-2.53282	1.97544	-8.52548	3.0643	-67.0529	0.168835	-3.28176	-0.32197
0.7413	40.6595	0.420805	-2.53282	2.27812	-6.68042	2.16743	-79.5681	-0.742872	-3.57766	-0.32197
0.7420	40.9801	1.05201	-0.702379	4.41287	-5.76849	3.68712	-75.6027	1.08054	-2.36717	0
0.7427	34.8892	1.33255	-0.0851369	4.11018	-4.85656	0.946694	-72.5434	-0.135068	-3.28176	0
0.7433	30.6148	1.96376	-0.4044	1.37006	-4.85656	-2.71552	-84.7536	-2.56629	-6.64422	-0.32197
0.7440	26.6077	5.89127	4.17171	4.11018	-5.47158	1.54461	-109.47	2.93772	-5.40684	0
0.7447	25.1116	8.34597	6.91737	5.03418	-6.38351	3.0643	-118.935	5.67284	-4.19635	0
0.7453	36.118	5.61073	3.25649	0.764685	-6.68042	-2.71552	-100.929	0.168835	-7.55881	0
0.7460	50.7576	4.41845	2.66053	1.97544	-6.0866	-3.03939	-76.5178	-3.17409	-8.17751	0
0.7467	54.3908	5.89127	5.40619	7.16892	-5.15346	1.24565	-54.8517	-4.0858	-5.11094	-0.32197
0.7473	45.575	3.15604	0.510821	5.03418	-4.85656	-2.1176	-35.9218	-8.6781	-6.64422	-0.32197
0.7480	34.8892	0.140268	-4.36327	1.67275	-4.55965	-5.77981	-26.7709	-13.2366	-9.68389	0
0.7487	23.2951	2.52483	-1.6176	5.03418	-4.55965	-1.81865	-16.3909	-12.6288	-7.55881	0
0.7493	-0.213716	4.69899	0.212842	5.33686	-4.24153	-1.81865	3.44505	-12.6288	-6.02553	0
0.7500	-20.677	3.78725	-2.53282	0.764685	-3.94463	-7.92233	14.7312	-17.525	-9.68389	0
0.7507	-14.5861	5.61073	-1.31962	2.89943	-4.24153	-6.07877	11.0708	-15.3977	-9.38799	0
0.7513	-0.854865	8.34597	2.04329	7.47161	-4.24153	-0.896868	4.9702	-8.6781	-6.64422	0
0.7520	-0.53429	7.43422	-0.702379	5.63955	-2.71458	-3.03939	3.75008	-8.982	-8.7693	-0.32197
0.7527	-4.80861	6.80301	-3.15007	3.20212	-1.50574	-4.55908	-0.834348	-10.8054	-11.8359	-0.32197
0.7533	-8.44179	8.06543	-2.23484	4.11018	-1.50574	-2.71552	9.85069	-8.982	-11.2172	0
0.7540	-14.2656	8.6265	-0.702379	5.03418	-2.41767	-2.71552	42.8119	-7.15859	-9.38799	-0.32197
0.7547	-17.311	8.06543	-1.31962	2.89943	-3.0327	-5.77981	50.1327	-8.3742	-8.7693	-0.32197
0.7553	-26.4474	8.34597	-2.23484	1.37006	-3.62651	-7.29951	26.3313	-8.3742	-9.38799	0
0.7560	-60.642	8.6265	-1.6176	1.06737	-3.94463	-7.00055	-6.62993	-7.76639	-10.3026	0.32197
0.7567	-82.6013	9.53825	0.212842	1.97544	-4.55965	-5.48086	-37.761	-6.24688	-9.0921	0
0.7573	-60.0542	11.7124	2.95851	2.89943	-4.85656	-3.93625	-44.7767	-3.78189	-6.94012	0
0.7580	-35.9043	13.2554	4.49097	1.97544	-4.85656	-4.85803	-24.0256	-3.47799	-7.85471	0
0.7587	-31.0423	14.1671	5.70417	0.764685	-5.47158	-5.15699	8.02051	-4.0858	-9.0921	-0.32197
0.7593	-27.9968	15.0788	5.70417	1.06737	-6.38351	-4.55908	30.9068	-5.30141	-8.17751	-0.64394
0.7600	-24.3102	14.1671	5.08693	1.06737	-6.0866	-4.55908	35.1772	-7.76639	-7.55881	-0.32197
0.7607	-21.2648	14.1671	6.61939	1.37006	-6.0866	-3.93625	32.1269	-6.85468	-8.4734	0
0.7613	-21.9059	17.1829	9.66304	4.73149	-7.29544	-0.274043	32.737	-2.56629	-6.94012	0
0.7620	-21.9059	17.8141	9.36506	5.63955	-8.20737	2.16743	36.0923	-2.26238	-5.72964	0
0.7627	-13.6244	13.8164	5.08693	1.37006	-8.52548	-0.274043	45.8622	-8.6781	-7.85471	0
0.7633	-4.16747	11.0812	2.04329	-1.06737	-8.52548	-1.49478	57.7584	-13.8444	-8.4734	-0.32197
0.7640	4.64833	11.9929	3.25649	1.37006	-7.91046	0.323869	49.5226	-12.6288	-6.64422	-0.32197
0.7647	13.5175	12.3436	4.17171	1.67275	-8.20737	-0.274043	29.0766	-12.9327	-6.94012	0
0.7653	10.4721	10.1695	2.04329	-1.68868	-9.1193	-3.03939	24.8062	-18.4367	-8.4734	0
0.7660	2.83174	10.5201	2.95851	-1.38599	-9.1193	-1.19582	37.3124	-20.2602	-6.94012	0
0.7667	-5.71691	12.6242	5.08693	1.67275	-7.91046	0.323869	39.4476	-17.2211	-5.72964	-0.32197
0.7673	-17.6316	13.2554	5.08693	1.37006	-6.68042	-1.19582	22.0609	-16.0055	-7.55881	-0.32197
0.7680	-9.08294	12.6242	4.78895	0.446066	-5.76849	-2.1176	1.9199	-15.7016	-8.4734	0
0.7687	15.6547	11.9929	4.49097	1.37006	-5.15346	-0.597912	-12.4255	-14.486	-6.94012	-0.32197
0.7693	10.7392	11.4319	3.25649	0.446066	-5.15346	-1.19582	-21.8904	-15.0938	-6.64422	0
0.7700	-11.4872	10.1695	2.34126	-1.68868	-5.15346	-2.71552	-24.0256	-16.9172	-7.55881	0
0.7707	-1.12201	10.5201	2.95851	-0.159309	-5.15346	-0.274043	-19.7552	-15.3977	-6.02553	-0.32197
0.7713	39.1635	12.6242	4.49097	1.97544	-5.76849	1.54461	-15.7808	-12.3249	-3.57766	0
0.7720	72.3963	12.9047	4.49097	0.143378	-6.0866	-0.896868	-19.1452	-12.021	-5.11094	0
0.7727	81.5861	15.0788	6.61939	0.143378	-6.38351	-0.597912	-16.0859	-9.2859	-5.40684	0
0.7733	92.8597	16.9023	9.36506	1.67275	-6.68042	0.622825	5.58027	-5.60531	-4.49225	0
0.7740	105.683	14.7282	8.44984	0.143378	-5.76849	-2.1176	27.5514	-6.55078	-6.64422	0
0.7747	95.9051	14.1671	8.15186	0.446066	-4.24153	-3.03939	31.5168	-6.24688	-6.64422	0
0.7753	69.6715	14.4476	8.44984	0.446066	-4.24153	-3.03939	15.0362	-5.30141	-5.72964	0
0.7760	37.614	13.5359	7.8326	-1.06737	-4.55965	-3.93625	-3.57962	-7.46249	-7.26292	-0.32197
0.7767	25.4322	13.5359	7.53462	0.446066	-5.15346	-1.81865	-9.3752	-6.85468	-6.94012	0
0.7773	51.9865	12.9047	5.70417	2.58081	-5.47158	0.946694	-8.46011	-3.17409	-3.90046	-0.32197
0.7780	73.9458	9.53825	1.12806	0.143378	-4.85656	-1.81865	-11.5104	-4.3897	-4.19635	-0.32197
0.7787	53.4825	7.71476	-1.6176	-1.38599	-3.94463	-3.03939	-11.2054	-6.55078	-5.11094	-0.32197
0.7793	17.1507	8.97717	-0.0851369	0.446066	-3.3296	-0.274043	-2.3595	-4.6936	-2.98587	-0.32197
0.7800	-19.7687	8.97717	1.42604	-0.461997	-3.0327	-0.896868	6.80039	-5.30141	-3.28176	0
0.7807	-68.2823	9.25771	2.66053	-2.29406	-2.41767	-3.6373	13.5111	-8.07029	-5.11094	-0.32197
0.7813	-92.6994	13.8164	6.61939	1.37006	-2.09956	-0.896868	18.3915	-3.17409	-3.90046	-0.32197
0.7820	-66.4657	18.0946	10.5783	3.80749	-2.71458	2.76534	15.0362	3.84943	-1.74848	0
0.7827	-32.8589	16.2711	8.44984	0.143378	-2.71458	-1.19582	3.75008	1.08054	-3.90046	0
0.7833	-16.4027	14.1671	5.08693	-1.68868	-2.71458	-3.6373	-2.66453	-1.35068	-6.02553	-0.32197
0.7840	-2.35088	14.7282	5.08693	1.67275	-3.62651	0.323869	0.995835	3.24162	-3.28176	-0.32197
0.7847	-5.12919	13.5359	3.57575	1.06737	-3.3296	0.323869	3.14002	3.24162	-2.66307	0
0.7853	-39.9115	11.4319	0.510821	-2.59674	-2.71458	-3.03939	-1.74944	-1.65458	-5.72964	-0.32197
0.7860	-75.0144	12.9047	2.66053	-0.159309	-3.94463	0.946694	-2.66453	0.776639	-3.57766	-0.32197
0.7867	-80.7847	15.0788	4.49097	3.20212	-4.24153	4.90786	-3.57962	5.06504	-0.537994	0
0.7873	-50.8644	13.5359	1.12806	0.764685	-2.41767	1.84356	-11.2054	1.38444	-2.66307	0
0.7880	-1.76316	10.8007	-1.31962	-0.764685	-1.50574	0.024913	-15.7808	-2.26238	-4.19635	0
0.7887	40.6595	10.5201	-1.31962	0.446066	-1.50574	0.946694	-15.7808	-1.65458	-2.98587	0.32197
0.7893	79.449	11.4319	-0.4044	1.06737	-0.2757	0.622825	-20.0602	-0.135068	-3.57766	0
0.7900	110.545	11.4319	-1.00036	0.143378	0.63623	-0.896868	-25.8558	-2.56629	-5.11094	-0.64394
0.7907	128.871	10.8007	-1.31962	0.764685	-0.2757	1.24565	-24.9407	-3.17409	-3.57766	-0.32197
0.7913	133.145	10.8007	-1.00036	1.97544	-0.890722	3.68712	-22.1955	-1.35068	-2.07128	0
0.7920	89.1731	9.88892	-1.91558	1.37006	-0.2757	1.84356	-23.4156	-2.56629	-2.98587	-0.32197
0.7927	15.0136	7.43422	-4.36327	0.143378	0.339323	-0.274043	-25.2458	-4.6936	-4.19635	-0.32197
0.7933	-19.1276	6.24194	-5.27849	-0.764685	0.339323	-0.597912	-25.5508	-4.9975	-4.49225	0
0.7940	-21.9059	6.52248	-4.36327	-0.764685	0.63623	0.323869	-24.6357	-5.60531	-3.57766	0
0.7947	-26.1802	6.80301	-3.15007	-0.159309	0.339323	1.84356	-23.1106	-6.85468	-2.66307	0
0.7953	-30.4546	7.15369	-1.6176	-0.764685	0.339323	1.84356	-21.8904	-5.90921	-2.98587	0
0.7960	-29.8134	7.43422	-1.6176	-3.21805	0.63623	-0.274043	-23.7206	-6.55078	-4.49225	-0.64394
0.7967	-30.4546	7.71476	-0.0851369	-3.21805	0.0212077	0.622825	-19.4502	-5.90921	-3.28176	-0.64394
0.7973	-35.9043	8.97717	3.25649	-1.38599	-0.2757	3.0643	-5.40981	-1.35068	-1.45258	0
0.7980	-38.0415	8.6265	2.34126	-2.59674	0.0212077	0.024913	3.14002	-1.65458	-3.28176	0
0.7987	-25.8597	6.52248	0.212842	-3.21805	0.0212077	-0.274043	8.02051	-3.78189	-2.98587	-0.32197
0.7993	1.2823	7.43422	2.34126	-1.06737	-0.2757	3.68712	16.2563	-0.742872	0.376596	0
0.8000	24.7911	8.06543	2.34126	-3.21805	-1.18763	2.46639	13.5111	0.472737	0.995289	0
0.8007	49.8493	7.15369	1.12806	-5.65548	-1.50574	1.54461	3.75008	-0.135068	1.29119	0.32197
0.8013	89.8142	7.71476	2.34126	-3.21805	-1.80265	4.90786	1.6059	3.54553	4.65365	0.32197
0.8020	110.865	7.15369	0.212842	-3.82343	-2.09956	4.28504	-2.66453	5.36894	5.27234	0
0.8027	102.317	4.06778	-4.36327	-6.26086	-1.18763	0.622825	-9.07017	3.54553	2.82447	0
0.8033	114.819	4.41845	-3.74602	-3.21805	-1.18763	0.622825	-6.01987	5.36894	1.90988	0
0.8040	165.203	7.71476	0.510821	0.446066	-1.18763	1.84356	-3.27459	10.2651	2.20578	-0.32197
0.8047	208.534	10.1695	1.74531	-0.764685	-0.890722	0.323869	-7.54502	12.0886	0.376596	0
0.8053	190.528	11.9929	4.49097	-0.159309	-0.890722	1.24565	-11.8154	13.0003	-1.15669	0
0.8060	99.8589	14.4476	8.74782	1.97544	-1.80265	2.16743	-13.6456	14.5198	-1.15669	0.32197
0.8067	-23.4019	16.2711	10.5783	1.67275	-1.80265	0.622825	-13.9507	15.1276	-2.98587	0
0.8073	-99.6986	16.9023	12.1107	1.06737	-1.80265	-0.274043	-14.5607	14.8237	-4.49225	-0.32197
0.8080	-55.7799	17.5335	13.9412	2.27812	-2.41767	1.24565	-16.0859	15.1276	-3.28176	-0.32197
0.8087	-4.80861	16.2711	14.5584	2.27812	-2.71458	0.946694	-19.7552	12.3925	-1.74848	0
0.8093	-31.9506	12.6242	12.728	-1.06737	-3.0327	-1.49478	-23.4156	5.06504	-1.45258	0
0.8100	-81.1053	11.7124	13.3239	-0.764685	-2.71458	0.323869	-18.8401	2.93772	1.29119	0
0.8107	-138.755	12.3436	14.2391	1.97544	-3.62651	3.68712	-13.6456	4.76114	4.35775	-0.32197
0.8113	-133.893	8.06543	9.06708	-0.159309	-4.24153	2.16743	-14.8658	-1.35068	3.73906	-0.32197
0.8120	-67.374	1.61309	2.34126	-1.38599	-4.24153	0.946694	-14.5607	-9.2859	3.44316	-0.32197
0.8127	-20.677	-4.13792	-2.53282	0.446066	-4.24153	2.76534	-7.85005	-12.3249	5.86413	-0.32197
0.8133	13.8381	-8.76677	-7.72617	-0.764685	-4.55965	2.46639	-1.74944	-12.6288	6.77872	0
0.8140	29.386	-10.8708	-10.1739	-2.89943	-5.15346	1.54461	1.9199	-9.89371	6.48283	0
0.8147	0.374003	-10.5903	-8.02415	-1.06737	-4.85656	3.98608	6.80039	-9.89371	7.69331	0
0.8153	-52.4139	-9.95905	-6.49169	-0.764685	-3.94463	4.28504	9.24063	-17.525	7.10152	-0.32197
0.8160	-86.8756	-9.95905	-7.42819	-4.4288	-4.24153	2.16743	6.19033	-22.4212	5.86413	-0.32197
0.8167	-85.9673	-8.76677	-5.89573	-4.4288	-5.15346	3.98608	4.05511	-16.9172	7.69331	0
0.8173	-77.7393	-5.9614	-1.91558	-1.68868	-5.15346	6.1286	2.52996	-9.89371	9.2266	-0.32197
0.8180	-78.9681	-5.68087	-1.6176	-3.21805	-4.85656	3.68712	-0.529318	-8.3742	6.77872	0
0.8187	-73.7855	-5.68087	-1.31962	-4.4288	-4.85656	3.0643	1.9199	-7.76639	5.27234	0
0.8193	-63.6874	-4.48859	0.212842	-4.12611	-5.47158	3.98608	5.27523	-6.55078	6.77872	-0.32197
0.8200	-58.1842	-4.48859	0.212842	-5.3528	-5.15346	3.68712	3.44505	-8.07029	6.18693	-0.64394
0.8207	-53.3222	-5.68087	-0.4044	-6.56355	-5.47158	2.46639	0.995835	-9.89371	4.35775	-0.32197
0.8213	-52.0933	-5.68087	-0.0851369	-5.03418	-6.38351	3.38817	1.30087	-9.5898	4.65365	-0.32197
0.8220	-57.2759	-4.76912	1.42604	-4.12611	-6.0866	5.20682	2.83499	-7.46249	6.18693	-0.32197
0.8227	-61.2297	-4.13792	2.34126	-5.65548	-4.24153	3.98608	1.6059	-6.24688	5.56824	0
0.8233	-60.3214	-3.85738	2.66053	-5.65548	-2.41767	4.28504	1.6059	-5.30141	5.86413	-0.32197
0.8240	-64.008	-5.04966	1.74531	-5.03418	-1.18763	6.42755	2.83499	-5.60531	8.31201	-0.32197
0.8247	-80.7847	-5.9614	-0.0851369	-6.56355	0.63623	4.6089	0.995835	-8.07029	8.6079	-0.32197
0.8253	-97.5614	-6.31208	-2.23484	-8.39561	2.16318	1.54461	-2.3595	-9.89371	7.39742	-0.32197
0.8260	-90.5622	-5.04966	-1.6176	-6.26086	2.46009	3.68712	-0.529318	-5.90921	9.52249	0
0.8267	-66.4657	-3.57684	0.510821	-3.82343	2.16318	5.50577	3.44505	-0.135068	12.2932	0
0.8273	-46.323	-4.13792	-1.31962	-5.03418	1.86627	3.38817	3.14002	1.08054	10.464	-0.32197
0.8280	-27.0885	-4.13792	-1.91558	-3.52074	1.86627	5.20682	4.05511	2.32992	10.464	0
0.8287	-11.4872	-3.85738	-1.00036	-3.21805	2.16318	6.72651	4.66517	2.02602	11.3786	0
0.8293	-9.67066	-5.04966	-1.91558	-6.26086	2.7782	3.0643	0.690805	-0.43897	8.31201	0
0.8300	-20.677	-3.57684	0.212842	-6.86623	3.07511	1.84356	-0.834348	1.38444	5.56824	0
0.8307	-30.134	0.420805	5.08693	-4.12611	1.54816	4.28504	2.22493	6.28065	6.18693	0.32197
0.8313	-38.3621	1.96376	6.61939	-2.29406	0.63623	4.90786	2.83499	7.49626	6.18693	0
0.8320	-77.1515	1.96376	6.61939	-2.89943	0.339323	3.38817	0.995835	7.19235	5.27234	0
0.8327	-115.246	2.24429	7.53462	-2.89943	-1.18763	2.76534	0.690805	8.71186	4.35775	0
0.8333	-100.607	0.701342	6.32142	-2.89943	-2.71458	3.0643	1.30087	7.19235	3.44316	0
0.8340	-55.4593	-3.57684	2.34126	-3.21805	-2.41767	1.84356	1.6059	2.32992	3.12036	0
0.8347	-9.67066	-5.9614	0.830085	-2.89943	-2.41767	2.16743	1.9199	-1.65458	3.44316	0
0.8353	22.9745	-5.40033	2.95851	-2.59674	-3.0327	4.90786	2.83499	-2.87019	4.35775	0
0.8360	15.9753	-4.76912	4.49097	-3.52074	-3.0327	5.20682	1.9199	-5.30141	4.35775	0
0.8367	-17.8987	-4.13792	4.78895	-3.52074	-3.0327	3.98608	0.690805	-6.85468	3.12036	0
0.8373	-35.3166	-3.57684	3.87373	-2.89943	-3.0327	3.0643	-0.834348	-7.46249	0.995289	0
0.8380	-22.8142	-2.94564	3.57575	-2.29406	-2.41767	2.46639	-2.05447	-9.2859	-1.15669	0.32197
0.8387	0.374003	-4.48859	3.25649	-2.29406	-2.09956	1.24565	-2.96956	-12.021	-2.07128	0
0.8393	14.4258	-6.31208	2.66053	-1.68868	-2.41767	0.622825	-3.88465	-12.6288	-1.74848	-0.32197
0.8400	17.4713	-5.9614	2.66053	0.764685	-2.71458	2.46639	-3.57962	-8.3742	-1.15669	0
0.8407	23.8828	-6.59261	2.04329	1.06737	-2.41767	3.38817	-3.57962	-5.30141	-0.833891	0
0.8413	45.2544	-7.50436	0.510821	0.143378	-1.18763	3.0643	-2.96956	-4.9975	0.376596	0
0.8420	63.8477	-8.4161	-1.00036	-0.764685	0.933137	1.24565	-2.3595	-5.90921	0.376596	0
0.8427	60.5351	-9.32784	-1.91558	-2.89943	3.07511	-0.597912	-2.96956	-5.30141	0.376596	0
0.8433	47.9793	-8.4161	-1.6176	-4.4288	3.07511	0.024913	-2.96956	-3.78189	2.82447	0
0.8440	40.0718	-6.31208	0.830085	-2.29406	2.46009	3.0643	-0.224287	-2.26238	5.56824	0
0.8447	39.1635	-5.68087	2.66053	0.764685	2.16318	3.68712	0.995835	-2.87019	5.27234	0
0.8453	40.0718	-6.59261	2.04329	-0.159309	2.46009	1.24565	-2.66453	-5.90921	2.82447	0
0.8460	36.3852	-5.9614	2.04329	-2.59674	1.86627	0.323869	-4.18968	-5.90921	1.90988	-0.32197
0.8467	29.7065	-4.48859	4.17171	-2.59674	0.339323	1.54461	-1.44441	-4.0858	1.90988	0
0.8473	25.6994	-4.48859	4.78895	-1.68868	0.933137	1.24565	-0.529318	-4.6936	0.0806991	0.32197
0.8480	22.3868	-5.40033	4.49097	-1.68868	1.54816	-0.274043	-2.05447	-6.24688	-1.74848	0.32197
0.8487	18.1124	-3.85738	6.61939	0.446066	0.339323	1.54461	0.385774	-3.78189	0.376596	0
0.8493	11.9681	-3.22617	7.8326	1.06737	-0.2757	2.76534	2.83499	-3.47799	2.52857	0
0.8500	4.9689	-5.04966	5.08693	-1.38599	-0.2757	-0.597912	0.690805	-8.07029	1.29119	-0.32197
0.8507	7.10606	-5.40033	3.57575	-0.764685	-0.890722	0.323869	1.9199	-9.2859	2.82447	-0.32197
0.8513	15.3341	-5.9614	3.57575	0.764685	-3.3296	2.46639	4.9702	-8.3742	5.86413	0
0.8520	20.5168	-7.85503	1.12806	-0.764685	-5.15346	-0.597912	2.83499	-10.8054	2.52857	0
0.8527	37.0263	-6.87315	1.42604	-0.159309	-6.99853	-0.274043	3.14002	-10.5015	-0.242097	-0.32197
0.8533	63.26	-4.13792	2.95851	2.89943	-8.82239	3.0643	7.41045	-6.85468	0.672492	-0.32197
0.8540	65.7177	-3.57684	1.74531	3.50481	-7.59235	1.84356	7.10542	-5.60531	-1.15669	0
0.8547	44.6133	-3.85738	0.830085	3.20212	-4.55965	-0.274043	3.75008	-4.0858	-4.49225	0
0.8553	37.9346	-3.57684	1.42604	4.73149	-2.71458	-0.896868	1.6059	-2.26238	-6.94012	-0.32197
0.8560	39.7512	-3.85738	1.12806	4.11018	-1.18763	-3.03939	-1.74944	-3.78189	-8.17751	-0.32197
0.8567	31.2026	-4.48859	1.42604	4.11018	0.933137	-3.6373	-4.49472	-4.6936	-8.4734	-0.32197
0.8573	27.8365	-2.31443	6.00215	7.7743	2.16318	0.024913	-1.44441	-0.43897	-7.85471	0
0.8580	16.2424	-1.12215	8.15186	9.30367	3.07511	1.24565	0.385774	2.02602	-8.7693	0
0.8587	-21.5853	-2.03389	6.91737	6.54762	4.30516	-1.49478	-2.96956	-1.04677	-11.2172	0
0.8593	-70.4195	-2.03389	7.53462	5.63955	4.89897	-2.71552	-5.10478	-2.26238	-12.7505	0
0.8600	-115.246	-1.40268	7.8326	6.24493	4.30516	-1.81865	-3.88465	-0.742872	-14.2568	0
0.8607	-116.475	-2.31443	6.61939	5.94224	4.89897	-3.03939	-5.40981	-2.26238	-19.4485	-0.32197
0.8613	-50.5973	-3.57684	6.32142	7.16892	7.04095	-1.49478	-4.18968	-2.87019	-20.9818	-0.32197
0.8620	22.9745	-3.57684	6.91737	10.2117	7.35906	2.46639	0.995835	0.168835	-16.1129	-0.32197
0.8627	76.6707	-4.48859	4.49097	8.07699	7.04095	-0.896868	-1.44441	-1.95848	-15.1714	-0.32197
0.8633	117.597	-5.68087	1.74531	5.63955	7.65597	-3.33834	-4.79975	-4.6936	-17.0275	0
0.8640	113.59	-4.48859	2.66053	8.07699	7.04095	0.024913	-0.529318	-1.65458	-15.1714	0
0.8647	69.3509	-4.48859	2.66053	8.37967	5.83211	-0.274043	0.690805	-2.26238	-15.7901	-0.32197
0.8653	43.1172	-4.76912	2.95851	7.7743	4.30516	-0.597912	0.690805	-5.30141	-13.3422	-0.32197
0.8660	31.2026	-2.31443	5.70417	8.69829	2.16318	3.98608	6.80039	-2.56629	-3.90046	0
0.8667	-8.17464	-1.75335	6.32142	6.24493	0.63623	4.28504	9.85069	-1.95848	2.82447	0
0.8673	-49.0479	-3.85738	4.78895	3.50481	0.63623	1.54461	9.24063	-5.60531	6.77872	0
0.8680	-75.0144	-4.48859	4.49097	5.63955	0.339323	2.76534	11.3758	-5.90921	12.5891	0
0.8687	-81.3724	-4.76912	3.57575	5.94224	0.0212077	2.76534	11.3758	-6.55078	14.4182	0
0.8693	-57.2759	-6.59261	-0.0851369	1.67275	0.933137	-0.274043	6.80039	-10.5015	9.84529	0
0.8700	-26.4474	-5.40033	1.74531	3.20212	0.63623	3.0643	8.32554	-8.07029	9.52249	-0.32197
0.8707	-10.8995	-2.03389	5.08693	7.7743	-1.50574	6.1286	11.6809	-3.47799	10.7599	-0.32197
0.8713	-4.80861	-2.03389	3.87373	5.94224	-2.41767	2.16743	8.32554	-5.90921	8.9307	0.32197
0.8720	3.74003	-3.22617	1.74531	4.11018	-0.593815	0.024913	4.9702	-8.6781	7.69331	0
0.8727	7.42664	-4.13792	2.04329	4.41287	0.63623	-0.274043	3.14002	-8.3742	3.73906	0
0.8733	3.15231	-4.48859	1.42604	2.89943	0.933137	-2.1176	0.0807434	-8.6781	-1.15669	-0.32197
0.8740	6.78549	-4.13792	1.12806	2.89943	0.63623	-0.896868	0.995835	-6.85468	0.0806991	-0.32197
0.8747	17.1507	-3.22617	3.25649	5.33686	1.86627	2.76534	5.8853	-2.87019	4.94954	-0.32197
0.8753	24.7911	-4.13792	2.34126	4.41287	3.98704	0.622825	4.05511	-3.78189	5.86413	0
0.8760	26.6077	-5.68087	0.212842	1.67275	4.30516	-2.41656	-0.529318	-6.85468	3.44316	0
0.8767	17.1507	-4.48859	2.66053	3.20212	4.30516	-0.896868	0.995835	-6.55078	2.20578	-0.32197
0.8773	-0.213716	-3.22617	3.87373	2.27812	6.42592	-2.1176	0.995835	-7.46249	1.29119	-0.32197
0.8780	-7.85407	-3.57684	2.66053	0.143378	8.27099	-3.6373	-0.834348	-8.07029	0.376596	0
0.8787	-2.99203	-1.40268	5.40619	4.11018	7.95288	0.622825	3.44505	-3.17409	2.20578	-0.32197
0.8793	-9.67066	-1.12215	6.32142	7.7743	8.27099	0.622825	3.14002	-1.65458	0.995289	-0.32197
0.8800	-16.7233	-3.57684	2.34126	8.07699	7.65597	-4.26012	-2.05447	-6.55078	-2.98587	-0.32197
0.8807	-1.76316	-3.85738	0.510821	9.90904	7.04095	-3.03939	-1.13938	-6.24688	-3.28176	-0.32197
0.8813	6.51834	-3.22617	0.830085	9.90904	8.5679	-1.49478	1.30087	-2.87019	-3.57766	-0.32197
0.8820	-2.67145	-4.13792	-1.31962	6.86623	9.47983	-4.26012	-1.44441	-5.30141	-6.32143	-0.64394
0.8827	-16.4027	-3.22617	-1.00036	7.16892	8.5679	-1.49478	0.0807434	-4.6936	-4.81505	-0.64394
0.8833	-43.8652	-1.12215	1.12806	8.37967	6.42592	1.24565	1.9199	0.168835	-2.98587	0
0.8840	-69.5112	-2.03389	-1.00036	5.33686	4.30516	-1.19582	-2.3595	-0.43897	-5.40684	0.32197
0.8847	-73.7855	-2.31443	-1.31962	5.33686	2.46009	-0.274043	-2.3595	-0.742872	-4.81505	0
